ECG Amplitude
358
346
327
304
280
260
245
241
247
266
296
334
375
413
441
457
461
388
362
454
451
335
316
392
374
280
291
372
349
275
310
381
335
270
323
380
319
271
339
381
307
274
350
375
295
282
362
364
283
289
370
351
273
299
371
334
267
314
380
329
276
341
392
328
289
366
397
321
300
380
391
310
310
392
380
300
321
400
371
297
337
406
357
294
351
407
344
297
363
398
324
299
379
396
312
300
383
384
304
314
394
371
298
331
403
360
294
341
403
345
292
357
404
334
297
373
401
326
315
399
403
314
314
391
374
290
313
390
355
285
327
391
341
281
338
390
323
281
354
382
288
252
348
421
369
361
446
457
364
348
411
384
297
319
383
336
273
328
387
325
277
344
384
306
272
353
379
298
285
368
368
286
299
381
360
276
305
381
341
270
318
380
323
265
331
383
312
273
350
387
312
293
377
390
307
308
390
379
299
322
400
367
290
331
402
350
286
345
402
335
288
359
402
325
293
374
397
314
304
387
385
303
318
400
372
291
325
400
358
291
346
402
342
294
365
407
330
298
381
411
333
320
402
408
322
319
397
382
302
322
396
363
295
338
400
344
287
349
400
333
290
359
381
294
281
411
465
376
363
452
452
348
342
419
389
301
322
389
346
286
342
400
334
282
354
396
320
287
366
390
310
298
378
379
298
310
388
364
283
314
389
348
276
325
386
328
270
335
388
321
284
359
391
317
300
383
391
309
310
394
382
300
323
400
367
291
332
402
354
293
350
407
343
296
367
405
330
304
381
399
318
310
391
390
309
323
402
376
300
333
407
366
303
354
415
357
310
381
429
359
321
395
418
332
312
391
396
314
317
397
381
302
328
405
367
295
339
405
348
280
328
383
354
369
447
473
397
382
440
426
338
330
398
379
293
313
393
365
291
328
399
351
286
342
402
339
289
357
398
324
292
368
390
310
298
378
376
294
301
380
360
280
309
384
344
277
328
395
343
290
356
407
340
303
378
410
332
311
392
401
320
322
405
393
313
336
414
383
311
353
424
373
312
370
424
359
313
384
421
342
313
391
407
325
317
401
396
313
326
410
385
308
342
421
383
316
369
431
370
312
370
408
335
300
375
399
318
302
384
388
305
311
393
380
302
325
388
332
257
328
459
430
372
440
503
409
332
392
415
324
291
366
381
302
300
379
371
291
311
389
359
281
320
395
347
280
334
392
329
276
345
389
313
279
352
374
296
286
367
365
282
294
374
359
288
322
394
354
290
344
406
349
297
362
408
337
296
370
400
322
303
384
391
309
313
396
381
298
321
401
369
296
336
404
353
293
351
405
338
289
359
398
323
295
377
397
315
307
390
392
315
330
412
386
310
339
406
355
286
337
397
337
283
348
392
322
286
362
387
308
295
373
368
272
278
399
437
367
384
462
432
339
356
418
364
290
336
381
319
280
351
384
309
285
364
378
296
294
376
371
290
307
386
359
283
319
387
340
274
327
384
321
271
337
376
303
272
351
374
297
288
373
376
297
308
391
373
296
326
401
360
290
341
405
348
292
355
405
335
297
372
401
322
301
383
392
309
311
392
380
300
323
401
367
293
335
403
353
290
348
404
341
297
366
402
331
312
393
411
329
322
403
393
306
315
393
369
292
325
398
353
286
339
400
339
288
352
397
318
268
334
371
350
375
460
470
402
387
434
400
313
325
390
350
278
325
392
338
280
340
391
325
282
353
386
310
287
367
380
297
295
377
368
285
303
381
350
274
311
381
333
269
324
381
322
274
346
390
319
291
371
394
317
308
390
391
309
319
399
378
300
332
406
365
296
345
409
352
296
359
407
336
299
374
402
323
304
385
394
312
312
393
381
300
325
402
370
295
335
404
356
296
354
408
341
301
377
419
340
311
390
405
318
306
385
382
298
312
391
366
288
322
395
350
285
338
399
337
274
324
362
315
344
443
467
393
388
444
417
325
322
389
362
280
308
387
350
278
323
390
336
277
338
391
323
281
353
387
309
284
365
377
294
291
373
364
280
298
375
344
267
308
379
333
269
327
387
330
284
355
396
324
296
375
396
315
304
388
388
305
315
397
376
300
331
404
363
294
344
408
351
294
358
406
335
297
373
401
320
302
385
394
311
310
393
381
300
323
400
367
295
338
410
358
295
356
416
355
310
382
418
339
306
382
395
310
304
386
381
299
314
393
368
289
323
395
351
288
335
380
305
261
384
472
401
366
459
473
355
322
399
392
295
298
380
364
285
312
390
354
282
328
394
338
279
340
391
324
282
356
386
307
286
367
376
290
288
374
364
277
294
376
349
276
318
388
339
279
338
399
339
292
363
407
334
304
382
405
323
311
395
394
312
323
407
387
309
339
414
374
303
351
417
362
304
366
413
345
307
381
408
329
311
392
401
318
319
401
388
312
338
418
383
310
357
431
382
320
378
433
363
312
378
411
335
310
390
408
327
317
396
392
314
329
408
383
307
327
385
346
325
422
484
422
378
446
462
367
333
404
412
320
302
386
396
316
319
396
380
307
334
405
367
298
342
406
355
299
356
403
338
299
367
397
323
298
374
387
308
301
380
374
296
315
390
367
298
337
410
367
303
354
416
357
304
366
409
341
309
380
403
329
318
394
395
318
326
401
381
309
336
408
371
305
347
407
354
299
360
407
342
302
370
399
324
303
379
391
313
314
393
383
307
329
409
384
313
352
420
370
301
348
396
336
294
361
394
321
293
367
384
306
298
375
374
296
304
364
332
285
376
469
417
342
395
450
372
311
376
407
321
278
351
379
305
289
369
375
296
303
383
367
290
314
388
355
288
332
393
339
282
341
388
322
283
354
385
307
282
360
371
292
294
380
369
290
316
398
368
296
340
410
359
300
359
413
346
300
374
412
335
309
391
408
324
320
403
398
318
335
416
387
310
347
419
374
307
363
422
358
308
376
417
341
310
390
412
329
317
401
403
318
331
418
397
314
345
426
389
322
372
437
375
315
379
425
346
306
386
414
329
309
397
403
313
317
404
391
304
331
404
345
254
322
460
424
363
432
499
407
335
408
440
337
289
369
391
308
303
388
383
296
313
397
368
287
325
401
353
282
337
402
335
277
349
396
316
280
361
386
296
280
369
371
280
289
380
364
277
308
393
354
281
333
406
344
283
353
406
329
284
363
397
314
290
377
386
297
297
386
375
286
308
393
361
280
321
397
346
276
334
395
328
275
346
389
312
280
359
382
299
285
371
372
287
296
381
363
281
306
386
349
277
325
392
336
278
348
407
336
288
363
399
314
284
363
377
292
287
372
365
278
293
374
347
272
309
383
337
263
298
341
295
309
413
463
388
362
419
415
325
304
370
358
272
283
371
351
270
300
377
337
266
316
384
327
269
332
383
312
271
348
380
299
277
359
369
285
284
369
357
273
293
374
343
269
311
383
337
276
336
396
332
285
356
398
321
292
372
390
307
299
383
381
297
310
392
369
291
323
397
355
288
340
401
340
286
352
399
326
290
367
392
311
296
379
384
301
306
387
372
292
317
395
360
289
333
403
351
288
348
405
342
306
379
412
331
303
380
390
304
298
382
375
292
308
388
361
283
319
391
344
278
334
389
308
239
318
421
385
354
434
470
371
327
403
403
303
294
372
356
280
310
386
347
276
325
392
335
276
340
391
319
281
357
386
307
289
370
379
295
296
378
366
283
302
381
349
274
317
386
339
278
339
397
334
290
363
403
328
301
381
400
317
310
395
393
310
324
405
383
305
338
412
370
302
354
415
355
302
367
413
340
304
381
409
329
313
392
397
314
320
403
387
306
332
409
373
302
348
416
360
300
360
415
351
315
391
424
344
319
395
404
319
313
394
386
301
318
398
370
294
330
400
352
289
347
403
324
252
318
400
383
361
438
467
385
343
406
411
319
307
377
357
283
315
389
348
280
330
394
334
275
342
392
320
280
356
388
308
286
365
378
297
296
374
360
279
302
379
346
270
312
385
338
278
339
395
330
284
357
397
322
296
377
393
311
303
386
384
302
313
394
370
293
329
405
362
293
343
404
345
291
357
405
332
294
370
397
316
301
385
392
307
307
391
380
300
324
402
368
294
337
408
358
301
364
421
354
307
374
404
324
298
378
390
304
303
389
380
295
311
393
365
290
327
396
335
259
321
426
407
355
414
457
385
327
383
410
337
309
372
368
291
304
385
365
288
317
391
353
285
332
393
337
285
349
397
326
287
361
392
310
288
371
383
297
292
377
370
286
303
383
357
287
330
399
349
288
348
404
341
295
368
407
329
300
380
399
314
305
390
389
304
318
401
379
299
333
409
369
296
342
403
348
297
361
405
330
293
372
401
320
306
386
390
307
314
402
391
313
340
417
383
307
344
404
347
288
350
403
336
287
356
392
316
291
369
382
301
297
374
356
266
298
433
447
366
388
454
404
317
357
419
354
285
337
382
316
284
356
378
304
293
372
372
291
303
386
365
282
308
385
347
280
325
385
327
274
338
384
309
267
340
370
292
272
354
364
278
279
358
351
276
293
370
354
279
324
403
354
285
337
390
323
274
348
387
306
281
365
381
295
286
364
365
290
305
393
364
272
309
396
354
282
334
395
331
277
348
395
321
293
377
408
320
306
394
393
302
306
385
368
287
320
400
354
278
336
407
336
276
351
410
335
284
352
371
296
334
460
478
384
390
465
433
342
363
434
380
299
353
434
383
312
371
439
368
318
397
437
353
324
414
436
339
333
429
426
331
343
437
410
324
362
447
398
321
380
449
381
325
405
457
375
336
427
458
365
350
447
453
358
361
444
429
348
378
460
419
341
386
460
404
339
405
457
386
344
423
461
378
353
440
455
364
355
446
442
352
369
451
416
333
379
465
415
343
401
466
397
344
413
458
374
334
416
441
355
341
425
423
335
349
439
415
328
362
445
390
291
326
430
428
379
450
500
404
315
381
437
367
334
402
406
317
321
414
400
310
337
426
392
312
358
432
373
308
373
436
363
314
393
432
349
320
405
415
313
320
432
429
329
338
426
400
316
354
433
379
301
365
438
370
307
377
422
338
295
382
415
325
305
393
398
308
313
399
376
279
309
399
364
282
331
401
341
274
338
394
316
270
351
388
300
268
350
377
298
293
378
367
280
302
385
347
256
296
375
317
243
312
383
308
247
320
363
280
251
344
365
254
220
313
354
313
345
440
397
273
252
324
316
254
297
354
282
222
306
363
274
228
321
352
253
236
345
355
248
254
355
336
233
265
364
322
221
273
364
305
227
302
369
284
228
326
369
259
227
336
360
257
255
361
352
242
266
375
337
237
284
382
319
231
306
387
303
237
330
389
289
245
352
382
270
253
367
370
255
267
378
348
240
281
389
338
241
308
402
328
254
343
409
312
255
356
394
280
256
371
384
268
267
381
364
251
283
392
348
248
305
388
298
210
342
481
404
338
430
469
330
270
389
419
292
264
375
376
270
291
401
368
265
314
414
353
264
339
425
342
271
362
424
325
277
383
418
308
288
402
408
295
304
416
395
290
329
428
376
285
354
441
364
288
376
446
350
294
395
435
327
302
415
427
312
313
429
415
305
334
441
397
299
353
444
374
293
372
447
357
294
389
439
337
306
418
445
333
325
437
429
311
325
431
393
287
335
433
369
276
346
430
348
273
361
423
327
276
363
378
268
291
464
486
365
366
477
433
301
336
441
377
262
316
409
338
257
340
411
320
262
360
405
301
270
378
398
289
284
394
382
273
298
403
362
261
311
405
342
254
325
401
319
256
350
406
310
274
378
409
307
295
403
405
298
310
415
392
291
329
424
374
285
348
431
359
283
365
431
343
291
384
422
324
299
405
418
315
313
415
403
309
341
440
400
306
359
445
374
289
358
428
348
288
373
421
324
289
387
411
309
299
403
398
285
283
376
376
342
406
498
449
372
418
465
379
311
377
416
321
281
376
409
309
290
391
397
294
299
400
384
288
319
414
369
280
334
418
352
277
350
413
330
275
362
404
310
278
376
396
300
298
399
392
294
319
420
387
296
340
430
375
293
359
433
358
295
379
430
340
300
394
423
326
310
408
410
312
321
418
396
303
338
427
378
295
356
437
372
304
380
440
351
297
379
413
317
292
388
398
300
299
393
381
285
309
402
366
279
320
384
308
240
359
479
414
361
456
496
364
301
392
407
295
275
370
372
275
290
386
359
269
307
393
341
263
322
394
325
262
339
390
305
261
350
379
285
265
360
367
269
272
368
349
258
290
381
342
261
317
399
338
268
341
402
324
273
357
400
309
280
374
392
296
292
389
380
283
303
398
367
275
319
403
348
271
335
402
330
274
354
401
313
280
376
405
313
298
394
396
295
300
392
367
273
308
396
349
266
320
395
331
264
337
395
313
268
350
367
258
245
400
456
369
375
484
453
318
326
415
366
266
309
392
337
262
329
395
320
265
347
392
305
276
367
385
286
279
377
373
277
294
387
356
269
309
391
340
261
322
394
326
266
345
399
317
280
371
400
310
294
390
396
299
306
403
386
291
322
412
372
288
339
418
358
287
358
419
342
290
377
417
325
298
393
411
314
309
405
395
299
321
415
384
298
340
423
369
294
361
434
365
308
386
435
347
306
390
407
311
299
397
399
303
313
405
377
288
328
416
367
285
337
395
315
261
392
484
402
356
451
478
357
317
416
417
301
290
388
379
286
311
403
365
277
325
407
348
276
344
407
329
275
358
404
314
280
370
392
296
287
381
378
283
299
392
364
274
317
403
354
279
342
414
344
283
362
417
332
290
380
413
319
298
393
401
305
311
405
387
296
325
415
373
289
341
419
355
286
358
419
340
290
375
414
323
295
387
403
309
305
403
394
298
317
408
376
287
331
415
361
285
350
420
351
293
373
422
338
305
396
421
325
308
400
397
297
308
404
379
287
321
410
361
279
336
410
343
278
354
410
310
244
339
431
380
359
456
476
363
334
418
404
297
306
389
352
269
321
400
339
268
338
403
324
269
352
398
308
277
368
388
293
286
382
377
280
298
392
361
269
310
395
344
263
326
399
329
269
350
404
321
284
378
408
315
296
394
402
303
307
405
388
296
325
415
372
289
344
423
357
289
360
423
342
292
378
416
324
297
391
406
310
306
403
395
297
319
412
378
288
332
416
361
286
350
417
343
285
365
413
326
289
382
407
311
298
396
397
300
313
408
381
288
325
413
365
283
342
422
357
289
362
419
343
301
386
418
322
299
393
401
300
302
398
384
290
316
407
368
283
331
411
351
280
351
405
308
240
342
450
391
362
460
489
368
328
419
413
297
299
390
366
281
319
406
354
275
335
406
337
276
355
407
319
276
366
398
307
289
382
385
288
294
389
370
277
307
395
352
272
323
399
336
268
343
408
332
283
369
408
317
290
383
399
308
304
396
383
291
315
409
374
285
328
411
358
283
344
411
340
286
363
408
323
290
379
404
309
294
390
391
297
310
402
377
288
324
407
359
281
338
412
346
281
354
409
331
288
371
402
311
290
386
395
301
306
400
385
291
318
409
372
287
333
411
353
284
352
417
343
290
372
414
329
301
390
408
312
304
396
389
291
307
399
370
281
321
405
355
276
335
402
333
274
354
399
298
242
350
442
378
361
451
456
345
322
408
400
299
309
385
345
267
322
398
335
266
338
398
320
271
356
396
307
277
371
386
292
287
382
374
278
297
386
354
269
309
390
333
258
322
388
318
264
344
394
311
279
371
397
307
296
390
391
300
312
403
378
288
323
409
365
284
342
416
350
284
355
409
330
285
370
404
313
292
385
395
300
303
398
383
290
315
402
364
280
327
405
346
277
345
408
334
280
362
406
319
287
377
398
305
298
391
386
294
312
406
375
286
327
412
362
284
347
418
350
289
365
420
344
302
383
409
319
303
392
395
296
305
398
380
287
317
404
363
281
330
409
349
281
343
383
290
259
407
479
395
368
468
457
328
321
418
394
282
297
391
364
279
322
402
347
273
337
404
332
275
356
402
315
280
370
394
301
285
381
383
290
297
388
367
280
316
401
355
278
334
407
344
283
358
417
339
298
383
415
325
306
400
409
315
316
412
397
302
327
417
382
298
345
422
362
293
361
423
348
295
378
418
330
300
392
412
317
307
403
398
305
320
413
384
295
335
418
367
292
352
419
349
289
365
416
334
293
379
409
318
301
396
401
305
313
409
393
303
330
418
377
302
354
427
362
292
361
416
337
289
371
408
319
292
386
402
307
300
393
384
294
317
402
353
247
295
427
422
356
418
489
410
322
383
437
343
289
367
392
301
289
382
384
293
305
393
369
280
315
400
357
278
333
403
337
274
348
403
322
274
359
395
306
281
372
381
287
290
385
372
283
310
400
364
283
332
412
354
284
350
414
338
287
367
409
323
294
383
403
308
300
394
389
297
315
406
379
289
330
415
363
285
343
413
346
287
362
412
331
289
374
403
313
298
390
394
299
307
400
382
291
320
407
367
288
339
413
352
287
359
417
339
297
385
420
329
302
391
403
306
301
393
383
292
313
402
366
283
328
408
351
277
342
408
330
256
323
386
359
354
441
464
376
348
413
404
317
320
394
362
273
312
397
351
273
330
401
337
274
346
401
320
276
362
392
302
283
375
384
289
292
383
368
275
301
388
348
267
315
394
335
264
334
399
327
275
361
406
320
289
381
402
306
299
394
392
296
311
403
376
290
330
411
360
286
346
415
344
282
360
413
329
287
376
404
313
297
389
393
299
307
401
381
290
321
408
365
284
338
412
349
282
353
413
334
286
372
413
324
298
390
405
316
318
409
397
304
324
410
374
285
329
411
355
280
343
410
338
283
360
407
321
287
376
390
277
256
377
438
365
379
474
449
329
337
425
377
283
327
396
332
272
347
402
322
278
365
397
305
284
378
387
293
296
389
376
284
311
399
358
274
320
399
340
270
337
398
322
270
356
401
313
284
375
396
306
301
397
394
300
318
408
378
291
332
416
365
289
349
416
347
287
365
414
330
292
382
410
318
301
394
399
307
313
405
384
295
327
414
372
291
344
417
354
286
356
416
338
290
372
410
323
299
391
406
313
312
406
395
309
337
423
386
298
342
418
360
289
353
416
341
285
364
411
324
291
381
405
311
301
396
388
275
274
386
420
357
391
475
436
337
362
430
371
297
350
394
317
281
369
398
308
286
379
390
296
299
390
372
281
310
400
362
276
323
401
342
273
338
397
322
272
353
392
304
276
367
386
295
292
389
384
292
312
405
377
290
331
411
360
286
344
413
345
287
362
410
328
290
377
405
314
298
392
396
301
307
400
381
291
323
408
366
286
338
412
350
286
354
411
333
287
370
408
318
292
386
400
307
306
401
391
306
331
417
380
293
335
410
350
278
343
407
334
279
356
402
317
282
371
394
304
293
386
372
261
274
408
436
354
385
469
420
315
348
424
362
285
342
390
313
274
360
393
302
283
376
385
292
296
390
374
282
308
399
359
275
323
400
340
271
337
397
320
269
351
391
303
275
365
386
294
291
386
382
292
313
408
377
291
330
413
362
289
350
418
347
288
365
415
332
295
384
412
320
305
399
403
307
314
407
388
297
327
416
374
293
345
418
355
289
363
419
339
292
376
413
325
299
392
408
313
313
407
398
313
337
424
387
300
343
420
361
286
350
415
342
287
366
412
327
292
381
405
312
300
396
391
278
276
386
423
363
403
491
449
344
370
440
372
295
354
404
325
282
370
404
313
292
384
394
302
304
396
382
291
317
405
367
283
330
406
348
280
346
405
327
278
361
401
313
283
375
397
304
299
394
391
300
323
415
388
301
340
423
371
295
356
424
355
295
372
422
339
302
388
415
322
307
401
406
312
321
414
394
303
335
421
376
296
349
422
358
290
363
419
341
295
380
415
324
300
396
409
316
316
410
399
306
330
426
396
308
349
428
372
295
355
420
347
293
371
413
327
295
385
407
312
301
396
394
300
309
386
343
257
344
476
436
360
425
481
379
304
382
425
327
275
362
399
307
286
380
386
293
298
391
374
283
311
400
360
279
329
404
343
274
344
403
324
273
354
394
306
277
369
386
291
287
384
379
289
312
406
376
291
335
419
367
293
356
425
355
297
377
427
343
303
392
421
328
313
407
412
319
326
418
396
307
337
424
379
298
351
425
361
296
366
423
344
298
383
419
329
303
394
407
313
311
405
392
301
326
414
379
294
341
422
365
294
365
433
355
296
375
419
329
291
379
402
309
298
390
386
294
310
402
374
282
320
406
359
272
311
369
323
321
420
479
398
356
419
422
330
312
390
381
281
289
386
371
278
305
394
354
271
320
396
335
266
336
397
319
268
350
392
305
278
365
379
285
281
377
369
274
291
382
353
268
313
398
346
272
337
406
337
277
355
403
321
284
373
397
305
291
385
388
296
305
396
375
286
318
402
358
282
336
408
342
280
355
409
328
283
369
403
312
288
380
392
298
299
394
381
288
312
401
364
280
328
408
350
279
346
410
339
285
367
414
330
296
384
403
305
293
386
383
289
303
396
369
277
313
399
351
274
329
399
334
273
339
373
284
276
423
468
369
341
434
425
311
314
412
381
272
293
383
344
263
316
394
333
262
330
394
319
267
348
391
307
276
363
379
287
283
377
369
275
295
383
352
265
308
391
337
261
323
393
327
272
352
401
316
280
371
399
307
293
386
388
294
304
396
374
286
318
403
360
282
335
408
343
278
351
409
330
283
366
403
315
292
383
395
301
299
391
381
289
312
403
368
283
328
406
350
281
345
407
333
279
362
407
323
290
380
403
312
306
402
402
307
318
406
378
286
322
404
355
279
336
408
340
276
350
402
322
280
366
396
292
258
354
405
361
373
462
442
346
351
421
384
303
338
398
332
266
340
401
321
273
361
401
312
282
376
393
295
292
388
382
285
303
394
363
274
317
401
350
271
330
397
323
267
349
399
315
280
374
402
309
301
398
399
305
318
415
392
298
332
419
374
294
349
426
362
295
368
423
336
291
385
426
333
306
398
412
316
318
411
397
303
331
423
384
296
343
424
366
295
357
420
346
294
374
416
332
303
393
416
324
311
406
402
308
327
423
397
304
341
431
386
311
369
439
369
305
379
428
342
300
387
419
327
310
404
410
313
317
413
397
304
333
420
363
259
317
449
433
370
444
512
412
326
403
446
342
296
382
400
309
303
398
389
295
317
407
375
287
328
409
357
285
345
410
340
285
361
407
321
283
371
397
307
290
381
384
292
302
397
374
287
324
413
372
291
343
421
360
295
366
421
342
298
383
418
328
305
397
411
319
316
406
393
305
333
420
382
300
346
423
365
296
362
423
352
298
373
416
335
303
390
409
320
311
403
399
306
323
416
389
299
334
417
369
293
349
420
355
295
367
419
341
302
389
418
327
312
406
413
318
323
412
391
297
320
406
370
292
339
412
354
284
350
411
336
286
366
408
319
273
344
373
340
370
465
458
365
363
421
385
315
347
405
341
269
333
399
332
276
349
394
316
280
364
389
301
287
379
382
289
298
390
367
278
306
389
348
273
325
395
333
267
337
394
320
279
359
393
311
289
379
391
303
303
394
384
293
315
402
368
287
330
407
353
284
348
409
332
279
362
406
322
290
378
398
308
298
390
389
299
311
400
376
288
323
405
359
285
341
409
345
285
359
408
329
288
372
402
313
296
389
395
303
311
406
392
306
333
413
372
291
337
408
345
277
344
403
329
280
359
395
311
283
372
389
297
291
383
370
261
271
391
422
355
388
460
408
318
356
418
356
288
344
382
303
270
356
382
295
280
370
374
285
294
383
361
276
308
391
348
272
323
393
332
270
338
389
313
268
348
383
299
277
363
374
286
289
381
371
282
306
396
364
283
326
404
349
280
345
408
337
285
361
404
320
288
377
398
306
297
389
389
297
311
400
375
290
325
407
358
286
343
411
344
284
357
409
328
288
372
400
312
292
382
389
298
303
393
374
286
314
400
360
281
333
410
350
283
352
415
343
292
372
409
320
289
374
388
297
295
389
377
283
303
395
364
276
317
398
345
274
335
387
294
235
354
464
392
356
452
469
342
309
405
397
286
285
380
361
275
308
393
349
269
324
397
334
268
341
400
321
274
359
392
301
278
369
383
287
286
382
371
277
303
393
358
272
320
403
347
276
343
411
338
286
367
410
322
289
381
403
310
300
396
394
299
313
405
378
289
327
412
362
283
341
414
348
287
361
414
329
288
377
408
315
295
389
397
302
307
402
385
291
317
408
369
285
336
414
352
285
354
415
336
285
371
412
320
292
385
404
312
305
398
389
300
325
419
388
298
337
418
362
284
344
412
342
281
359
408
323
285
373
402
310
294
388
390
298
296
368
338
279
374
476
434
350
397
438
356
301
371
411
318
270
359
398
307
283
377
390
296
297
391
379
287
309
399
364
280
325
404
349
275
339
405
331
277
357
402
317
284
370
394
305
296
390
390
299
311
400
379
294
329
410
364
291
347
415
350
288
360
413
335
292
374
406
320
301
389
398
309
311
398
382
296
326
412
370
290
342
417
359
290
355
415
342
294
370
409
327
297
386
405
314
309
396
392
306
324
409
378
294
335
411
362
291
352
419
351
295
368
416
342
312
396
415
323
307
395
395
302
310
400
379
293
324
406
366
290
340
411
351
285
350
403
316
258
344
425
381
365
452
461
360
326
404
407
320
320
388
353
279
326
401
347
279
340
402
333
283
357
399
319
286
372
393
302
292
381
383
295
305
389
365
282
317
396
349
275
332
400
336
276
348
402
328
287
369
402
318
300
386
391
302
309
399
382
294
321
405
368
290
336
410
355
289
352
409
338
289
366
404
322
294
379
395
308
303
392
387
300
316
400
371
291
330
408
359
285
343
408
345
292
364
409
333
301
389
417
328
313
399
399
307
312
396
375
290
322
404
363
284
335
404
344
282
350
401
328
284
356
373
282
289
437
473
379
363
448
420
311
332
426
383
282
313
389
341
277
339
399
329
278
353
395
314
285
370
388
302
294
383
379
291
302
387
364
283
315
390
345
273
328
393
330
273
343
395
320
285
365
394
311
297
386
393
304
309
397
381
296
324
407
369
292
338
409
353
292
357
413
341
293
371
410
330
303
386
402
314
309
396
391
304
323
409
380
296
334
411
363
295
353
416
350
296
371
419
344
309
391
415
324
306
390
390
301
310
398
380
293
323
403
362
287
338
408
348
288
352
389
297
258
391
472
395
374
466
459
336
324
416
393
288
305
390
359
279
322
397
345
277
339
401
330
277
353
395
314
282
366
385
298
289
378
376
286
298
384
359
275
309
388
346
275
330
397
334
279
355
406
327
290
375
404
318
300
389
394
305
311
402
385
293
321
406
370
291
338
410
352
288
354
412
339
289
370
410
323
295
383
400
313
308
396
389
303
319
407
377
296
336
414
364
294
360
427
360
304
376
418
333
293
375
400
312
300
389
390
298
306
397
376
290
320
403
362
281
314
368
319
310
418
482
408
363
421
424
333
312
391
386
288
292
386
374
284
308
396
360
278
324
402
346
277
340
401
330
278
357
399
316
284
371
393
303
293
383
382
292
306
395
369
286
323
407
360
287
346
414
349
289
364
416
336
295
378
408
320
303
392
399
307
313
403
386
296
323
410
372
291
342
417
357
289
355
415
340
293
373
411
324
298
387
404
313
308
399
392
302
322
410
380
295
339
424
375
305
364
430
361
300
369
411
329
295
379
403
315
303
392
393
302
310
399
380
295
329
403
339
248
321
456
423
366
432
484
378
308
393
428
325
285
371
389
303
300
388
378
291
311
397
365
285
328
403
352
285
346
405
334
284
360
403
321
290
375
396
307
297
388
388
302
312
398
375
295
331
412
368
296
351
420
357
298
366
415
340
302
382
410
327
309
395
401
314
318
405
388
302
329
411
374
298
344
416
358
295
358
414
342
299
376
410
325
301
388
403
315
311
400
393
307
325
412
387
309
350
428
380
308
358
416
348
293
366
408
328
292
374
398
313
299
384
387
303
314
397
365
266
294
406
423
363
407
470
408
324
365
419
355
300
359
387
308
289
371
383
297
298
386
373
287
310
391
357
281
323
398
347
281
339
395
328
279
354
392
310
277
361
383
299
291
379
377
288
304
394
375
294
327
405
363
292
344
407
348
292
361
411
337
298
376
404
321
305
391
399
313
316
399
384
303
327
407
371
296
342
410
353
291
355
409
338
292
369
406
325
300
384
400
316
316
407
402
318
336
419
386
302
336
406
355
288
344
406
341
288
357
398
321
287
368
393
311
294
366
353
279
342
471
453
359
381
452
388
299
357
424
346
270
335
391
320
278
356
389
307
284
370
381
295
296
382
370
286
310
392
357
278
322
395
341
273
332
390
321
271
345
386
307
277
361
382
299
294
384
383
298
316
401
377
296
332
408
361
291
346
411
348
291
360
408
333
297
377
405
320
303
390
395
308
315
401
383
297
326
408
369
291
337
410
356
294
358
411
339
298
380
420
339
312
396
408
315
306
390
383
297
314
397
368
287
326
402
352
283
343
405
337
282
339
363
288
301
440
477
394
384
457
424
321
332
405
368
276
309
390
351
276
329
399
339
278
345
398
322
278
360
394
308
286
374
385
298
297
383
370
284
307
390
354
274
318
390
336
269
334
396
328
280
357
399
319
291
378
398
308
300
389
385
299
313
399
372
289
325
404
356
285
341
407
344
287
358
407
330
290
372
400
315
298
385
391
302
307
398
382
296
324
409
372
294
343
418
364
301
367
425
348
299
372
407
322
293
382
395
306
301
388
381
293
314
400
370
287
329
397
327
246
322
447
410
364
441
489
379
310
393
419
318
289
374
378
296
305
390
368
284
318
399
358
282
333
402
342
281
347
400
327
283
363
395
311
288
374
386
297
297
385
374
289
312
399
366
289
333
409
358
292
354
414
346
295
371
414
332
299
382
402
319
312
398
392
302
317
406
383
302
336
417
372
298
349
414
354
300
367
413
337
301
380
407
324
310
398
405
316
320
412
402
320
346
428
387
307
350
417
355
292
357
413
341
293
368
404
324
297
381
397
310
308
392
369
267
297
437
447
368
404
477
413
311
356
429
359
290
352
395
320
286
366
389
307
297
383
384
298
306
390
369
290
322
398
357
282
333
401
341
282
348
400
325
282
359
391
309
288
373
387
306
308
396
382
298
325
409
375
297
341
415
361
295
354
415
346
297
370
408
327
300
385
406
318
309
397
395
311
323
404
379
300
335
412
366
296
349
414
349
294
363
413
338
300
381
410
330
318
406
414
327
327
406
385
298
324
407
368
291
336
405
348
285
346
400
329
286
365
398
304
263
352
419
381
383
463
448
353
344
411
390
309
332
392
340
276
336
396
328
276
350
394
316
284
366
390
304
291
378
380
295
306
392
368
284
315
393
352
278
328
392
334
277
345
396
322
283
366
401
320
301
387
398
312
314
403
391
305
329
413
379
300
344
419
366
302
364
423
352
301
378
419
338
310
395
412
323
318
407
402
314
329
416
390
307
344
422
373
302
358
424
360
305
377
427
353
317
403
432
344
326
411
411
318
321
410
393
304
330
413
374
296
344
416
356
292
360
419
342
278
336
378
347
370
469
488
402
375
432
417
328
333
405
367
287
332
410
359
288
348
413
345
291
365
409
329
296
381
407
316
303
391
394
305
315
401
379
296
326
406
362
287
339
407
346
286
358
413
337
297
381
415
331
310
397
408
319
319
408
397
309
330
416
382
302
346
421
366
300
363
424
351
301
378
419
335
305
392
411
324
314
403
400
311
327
414
387
304
340
420
372
303
358
425
359
302
375
430
359
322
402
431
339
318
401
401
311
320
410
391
302
327
410
372
294
342
416
359
295
359
406
310
253
361
462
398
375
465
477
355
328
421
409
302
306
390
364
285
325
400
349
282
343
405
335
282
357
402
324
287
369
391
305
294
383
383
293
302
389
368
283
316
395
352
279
333
403
341
283
354
407
332
290
372
407
321
297
385
395
307
307
396
384
298
319
401
366
287
333
407
352
287
350
408
337
290
370
407
321
291
378
397
311
301
389
387
299
314
398
373
292
326
402
358
289
346
408
339
285
363
417
339
302
387
414
321
299
383
385
298
303
387
367
281
312
394
354
276
324
397
338
274
333
375
291
259
395
463
381
351
433
429
314
304
405
390
280
288
376
349
268
309
385
333
266
326
387
319
270
345
386
302
268
356
381
290
277
370
370
275
285
375
354
267
298
381
339
264
318
387
325
266
339
395
324
282
361
393
309
290
380
386
294
297
388
372
284
311
397
359
278
323
398
345
278
341
398
328
279
357
396
314
286
372
387
298
293
384
379
290
305
390
365
282
319
396
350
280
336
402
341
291
366
413
336
299
379
400
309
287
374
379
292
299
386
366
281
308
390
351
272
324
395
337
264
312
363
327
340
431
461
373
345
406
400
316
317
391
365
271
292
381
351
269
310
387
337
269
330
390
323
270
344
388
309
275
358
382
295
282
371
369
280
291
376
352
271
304
382
340
267
322
392
333
277
349
402
329
287
366
400
317
300
386
392
303
307
398
382
296
322
405
369
290
335
410
355
288
351
410
339
291
367
407
325
296
381
400
314
307
393
391
304
317
402
376
293
332
413
367
295
348
415
355
305
376
422
344
305
383
405
314
298
388
393
301
306
394
376
291
320
402
362
284
333
408
342
257
309
388
379
359
443
485
397
337
400
417
323
302
377
368
284
306
391
360
282
320
396
348
278
335
398
331
278
351
396
317
283
366
388
301
289
376
376
289
299
388
364
281
313
395
354
280
334
404
344
288
358
410
335
294
375
408
323
300
387
398
310
311
399
388
304
326
409
373
297
342
414
359
292
355
412
343
295
371
409
328
299
383
403
315
307
395
392
304
318
405
379
296
331
412
367
295
350
414
351
299
377
427
346
309
390
414
324
303
389
395
306
310
396
378
295
323
404
365
289
338
408
352
284
332
367
301
314
434
480
396
372
435
418
327
328
402
376
283
305
395
366
284
326
402
350
282
341
402
335
282
358
402
321
288
371
392
308
297
384
382
293
304
390
369
288
321
400
355
282
339
408
347
290
359
413
340
299
377
407
321
303
391
401
313
314
402
388
303
328
413
376
295
340
414
361
298
360
418
349
302
378
415
331
301
387
407
319
314
402
398
308
325
411
385
302
339
418
371
300
356
424
365
311
381
429
351
313
392
414
326
307
393
398
309
316
401
382
296
326
407
365
287
338
412
349
263
317
402
388
365
447
480
387
332
394
416
333
315
385
372
289
312
398
368
285
323
402
354
285
341
402
334
284
359
401
320
287
372
394
306
295
382
383
295
305
390
368
283
317
396
356
288
341
408
348
291
361
412
337
297
378
410
325
303
390
401
310
311
400
389
302
328
412
374
295
340
415
363
296
356
414
343
294
372
412
330
301
384
401
315
311
398
391
303
320
409
382
300
337
419
374
307
364
431
367
307
372
413
330
292
374
401
316
299
386
390
302
309
394
376
295
323
403
354
259
302
406
407
362
424
472
394
326
382
417
342
308
373
379
292
294
383
374
289
308
392
361
280
322
396
345
278
339
400
331
279
354
397
315
281
365
386
300
288
374
374
285
298
386
365
282
317
397
359
287
340
410
349
291
358
409
335
296
377
406
320
302
389
398
310
313
400
384
300
327
410
374
295
342
414
358
293
355
413
342
295
371
408
325
298
384
402
315
309
397
393
311
330
418
391
312
347
418
365
289
343
408
344
288
358
404
325
287
370
394
308
295
383
388
294
281
353
349
327
391
480
442
368
389
429
367
306
357
394
313
272
354
391
307
282
370
383
295
295
383
373
285
305
391
357
278
318
394
343
273
333
394
324
270
344
387
307
274
358
382
297
288
377
379
293
307
398
376
293
328
408
366
292
344
412
349
288
357
410
335
295
376
406
320
300
388
397
308
311
399
386
300
322
406
369
291
336
411
356
290
351
409
339
293
371
409
325
300
390
411
325
318
408
401
307
318
402
375
293
328
406
358
287
343
407
343
286
356
404
328
292
368
373
273
274
423
460
379
388
477
427
314
345
425
369
277
324
398
342
280
345
400
326
281
361
396
312
289
375
388
299
299
386
375
288
309
393
362
281
323
398
347
277
335
397
331
280
355
401
320
291
378
400
315
306
395
395
307
319
406
384
299
332
412
370
295
348
416
352
294
363
415
337
297
379
410
323
303
391
400
311
315
403
388
301
326
409
372
295
339
414
359
296
358
415
344
301
383
425
341
314
398
412
318
308
394
390
303
318
405
376
291
328
406
358
288
345
410
346
286
341
369
296
313
437
476
390
376
441
413
320
332
408
373
281
312
397
358
280
331
403
343
282
350
405
330
285
364
399
313
289
376
389
302
300
388
378
292
313
393
359
280
325
400
349
281
343
405
340
291
369
414
335
299
381
405
321
313
401
399
309
321
408
385
302
335
416
371
299
351
417
355
298
365
417
343
301
380
409
322
305
392
402
317
319
405
389
303
328
412
378
300
347
424
371
307
369
431
362
309
377
410
324
297
387
404
314
305
391
385
298
316
402
375
293
331
404
340
254
316
428
408
364
436
476
384
316
384
422
336
303
375
375
292
303
390
369
285
314
395
357
280
326
396
340
281
349
403
328
281
358
393
312
289
375
385
297
295
382
372
284
306
393
363
285
326
400
353
290
354
415
344
292
367
408
329
299
383
405
315
305
393
393
309
319
403
380
297
331
412
368
295
346
411
352
295
360
409
336
298
374
401
320
305
390
399
312
315
405
397
315
342
425
385
302
343
411
352
286
351
409
336
287
362
400
319
294
379
395
307
300
380
360
262
296
438
448
369
397
468
408
309
353
428
361
288
344
389
317
283
363
387
302
288
375
382
294
300
385
366
283
313
394
352
277
325
394
335
273
337
390
316
271
348
383
301
278
363
378
295
298
385
376
294
317
401
371
293
336
409
356
290
351
412
343
292
367
410
331
298
381
402
316
309
397
394
307
319
406
384
300
331
409
367
298
351
414
352
296
365
414
344
309
391
422
337
317
398
401
308
309
395
380
294
319
400
363
286
332
402
346
284
348
404
328
265
325
371
342
360
455
476
395
365
418
407
320
320
391
357
278
319
398
350
278
335
401
336
280
351
399
319
283
366
392
305
290
377
380
292
300
387
366
280
309
390
352
276
324
394
337
278
346
403
331
289
369
406
325
302
386
399
312
312
400
390
302
323
410
377
296
337
414
363
295
353
415
346
295
370
412
333
300
385
408
321
309
396
396
307
319
407
385
301
334
419
379
309
362
429
364
305
369
414
333
293
373
402
317
298
384
392
302
308
395
380
295
321
401
349
252
298
415
413
363
429
490
401
317
385
428
332
289
366
384
301
297
384
378
291
308
394
367
286
323
399
352
282
339
402
336
282
353
398
319
283
364
392
307
291
378
380
294
301
389
371
289
320
403
363
291
341
412
353
292
359
413
340
295
373
407
325
301
388
400
309
308
398
391
303
324
408
375
296
338
412
360
292
353
412
343
291
367
411
330
299
382
406
319
309
394
396
312
329
417
392
311
341
417
365
289
342
408
346
288
354
404
329
290
369
399
315
297
385
393
292
273
356
378
348
390
480
443
353
363
421
374
304
349
395
323
279
359
397
316
288
375
392
305
299
385
381
294
312
395
367
288
327
403
352
282
340
403
338
282
351
397
321
286
369
396
311
298
386
391
306
317
402
383
300
330
412
370
297
347
416
356
295
363
420
347
301
376
409
327
305
391
406
319
315
399
388
304
329
412
379
300
341
412
361
297
358
420
352
297
368
410
333
307
396
419
334
325
412
404
311
320
404
380
300
332
405
360
289
342
406
343
287
357
407
333
288
348
361
291
331
454
466
374
373
446
400
302
340
419
365
277
323
397
342
277
342
399
331
286
361
395
313
288
374
390
303
294
378
373
290
308
391
360
279
317
395
347
278
331
394
332
278
350
395
320
290
372
399
316
306
392
393
305
312
402
386
302
326
405
367
291
340
409
355
294
358
411
337
293
372
410
329
304
385
396
310
312
399
388
301
321
404
375
297
338
410
361
302
369
429
361
309
380
416
332
297
377
403
315
303
387
386
300
312
395
370
292
327
402
355
275
313
375
348
350
435
479
394
351
409
416
330
320
396
389
292
294
383
369
287
313
396
361
283
328
398
344
281
346
400
327
280
357
395
314
285
369
385
298
291
376
371
286
303
387
359
281
321
399
353
286
346
411
347
293
364
409
333
299
381
405
321
308
394
397
309
317
405
384
301
333
413
372
298
348
416
356
293
359
412
339
295
374
408
325
302
388
402
313
310
400
395
310
334
419
390
309
346
416
359
289
348
409
340
287
359
401
322
291
374
393
305
298
389
381
275
269
363
392
357
400
482
443
347
366
425
365
292
345
387
313
277
359
388
302
284
372
381
291
295
382
367
282
307
391
353
275
320
392
337
271
334
390
318
271
349
386
303
276
364
381
296
293
384
379
293
313
402
375
294
333
411
362
291
348
414
349
291
362
409
333
298
380
405
318
306
394
398
308
316
402
384
299
328
409
370
295
343
411
352
293
361
415
341
298
379
411
328
310
400
414
326
324
411
399
311
327
407
373
293
335
408
355
288
348
407
339
288
363
404
327
293
363
362
272
303
448
461
376
390
463
407
311
351
419
356
275
331
402
340
281
350
400
323
284
365
395
313
294
381
387
299
303
390
376
290
315
396
358
282
330
401
343
281
344
403
331
285
363
402
322
296
382
399
314
310
398
391
303
322
408
379
298
335
412
364
294
351
414
348
295
367
412
333
297
380
406
319
306
393
396
307
314
402
382
299
330
409
367
293
344
412
352
293
360
414
340
297
379
416
336
314
398
410
321
317
401
386
297
318
403
369
289
333
408
354
287
346
406
337
287
362
390
288
252
373
450
376
371
460
446
323
322
418
388
288
314
393
350
279
334
399
337
279
350
399
323
283
365
395
307
290
376
385
298
301
387
371
286
313
396
358
281
327
398
343
279
342
399
330
288
368
406
324
298
383
399
313
307
394
389
305
321
404
375
296
336
411
363
294
350
414
351
297
367
409
330
298
381
406
320
307
393
395
307
316
403
384
302
333
411
370
296
347
414
353
295
367
424
351
309
388
422
338
312
389
395
309
310
398
385
298
319
401
370
291
332
402
352
290
348
387
301
258
386
474
400
363
437
446
332
308
409
409
304
302
384
366
289
323
397
349
280
336
401
338
283
351
399
325
286
366
391
308
292
378
385
298
300
384
368
288
315
391
354
281
329
398
344
287
351
407
338
292
369
408
328
302
386
400
312
306
393
389
306
326
405
373
295
335
411
363
294
349
410
347
297
367
410
331
297
380
407
321
303
387
392
307
316
403
383
299
331
413
377
308
359
427
366
304
365
412
335
290
368
401
319
298
383
390
302
302
387
378
295
316
394
349
257
304
426
424
364
415
467
391
314
369
420
344
296
363
380
300
292
377
375
291
304
388
362
283
318
394
349
279
332
395
333
279
349
395
319
279
359
387
303
285
369
376
289
293
381
367
286
314
396
360
287
336
408
352
290
353
409
340
295
369
406
325
300
383
398
313
310
396
387
303
322
405
375
297
335
411
360
292
351
412
345
293
365
408
332
301
382
403
317
307
398
403
317
328
415
394
306
331
406
362
289
339
405
345
286
351
402
328
286
365
396
312
292
374
370
265
271
411
446
367
392
480
428
316
351
426
362
277
332
392
324
277
352
392
311
283
368
388
302
295
384
379
291
305
390
366
285
319
396
349
276
330
397
336
275
344
394
318
280
363
395
312
298
386
394
306
312
404
390
304
330
409
372
297
345
416
358
295
360
415
344
297
375
413
329
301
388
406
316
313
400
393
304
322
407
378
296
337
415
365
296
354
417
350
301
378
427
348
313
396
416
327
310
395
395
308
317
404
382
297
328
407
364
289
341
411
352
290
343
374
298
297
432
481
397
374
447
425
326
331
411
382
286
309
396
363
287
330
402
351
283
343
403
334
284
362
401
318
287
375
394
307
298
385
383
297
311
396
367
284
321
403
356
286
343
409
345
289
362
414
337
299
379
408
322
306
393
399
311
316
403
386
301
329
411
371
294
344
417
357
293
359
415
342
296
374
410
325
299
386
402
314
310
398
389
304
325
411
378
296
340
421
372
304
364
427
359
303
372
411
328
297
381
402
314
301
390
391
303
313
399
376
291
326
397
335
248
321
450
415
358
424
475
370
303
390
422
320
284
369
385
298
299
387
375
291
317
400
365
283
328
404
351
282
344
403
331
283
359
398
319
289
372
391
303
294
383
378
292
309
396
371
288
326
407
364
295
347
412
350
294
363
411
337
299
379
406
320
304
392
397
311
316
403
386
304
331
412
373
298
346
415
358
294
358
413
339
294
373
409
326
300
384
400
316
315
404
399
316
336
422
390
310
345
415
359
289
349
413
345
290
362
406
328
293
371
395
312
302
388
376
269
274
398
434
366
394
467
422
322
349
423
370
296
345
390
320
284
364
396
313
291
376
388
303
303
388
376
292
314
397
363
287
330
400
347
282
341
397
331
282
355
392
315
288
373
392
308
301
389
389
304
318
407
383
299
333
411
367
294
347
412
351
296
365
412
334
297
378
406
322
307
392
395
309
318
405
388
301
328
408
370
296
345
413
358
296
360
410
340
303
386
422
342
317
401
414
322
312
394
385
301
321
403
374
295
332
403
354
287
345
406
340
285
342
371
302
322
449
480
385
364
440
414
312
330
418
379
283
311
392
355
284
333
398
337
279
348
398
326
284
362
393
311
291
375
385
300
301
383
369
284
306
389
355
278
322
393
340
275
338
397
332
287
363
403
323
297
382
402
316
308
395
393
308
320
403
378
298
334
411
366
296
348
412
350
294
365
413
337
296
375
401
320
306
392
399
310
315
401
385
306
337
420
384
310
357
423
361
294
354
405
333
289
364
397
316
292
377
388
301
298
383
378
292
296
361
331
293
390
480
432
364
414
443
356
307
372
395
305
275
362
386
300
289
377
377
290
302
387
364
281
314
394
350
274
325
395
335
275
339
388
315
275
355
384
300
280
367
376
290
293
381
370
290
318
401
368
290
336
410
358
291
352
411
342
293
369
409
327
300
383
402
315
307
395
393
307
322
405
378
297
335
412
365
295
349
414
353
298
370
414
338
305
392
422
337
320
406
409
316
317
401
384
299
325
406
367
292
340
410
353
288
352
406
336
290
355
370
285
301
443
475
391
389
458
417
320
342
415
368
279
322
399
351
284
344
404
338
285
359
403
323
292
373
396
310
299
385
385
298
310
394
372
289
321
401
356
282
335
404
344
284
353
407
335
295
375
406
324
304
391
402
316
315
402
390
305
328
411
375
298
343
415
361
295
357
416
345
295
372
414
332
303
386
404
316
310
397
392
306
323
408
382
299
334
412
368
303
363
429
364
308
376
420
339
298
376
402
317
301
387
391
302
309
398
381
295
321
403
365
280
306
366
337
336
421
482
406
350
396
414
342
315
384
384
299
300
388
380
295
316
401
368
288
329
404
352
285
344
406
339
285
357
401
323
292
375
396
307
296
384
384
296
307
392
371
291
326
406
361
289
343
413
355
297
363
413
336
296
378
409
327
306
392
400
312
313
403
390
303
326
408
375
299
343
414
360
295
357
415
344
295
368
411
332
302
385
402
316
309
398
397
315
332
416
393
313
348
421
369
295
349
413
346
289
361
409
330
293
373
400
315
302
388
392
294
281
358
369
346
397
481
432
349
369
415
366
313
363
400
325
285
363
399
318
294
378
390
303
300
385
378
296
318
398
363
287
328
402
352
284
339
400
336
286
358
399
317
287
371
393
308
301
388
389
302
316
404
384
301
331
411
371
297
345
410
349
295
363
410
336
296
377
407
321
302
390
398
311
314
400
387
303
329
408
371
296
341
411
358
297
356
411
343
295
372
415
342
319
400
415
328
318
395
384
297
317
403
373
291
327
402
357
291
343
404
341
286
354
392
299
256
361
449
393
374
449
450
348
329
406
398
306
317
388
349
278
328
396
339
278
343
397
325
280
356
392
313
291
372
382
297
299
383
372
286
305
387
356
279
317
390
341
274
334
396
330
280
355
399
324
294
376
399
316
307
393
392
307
318
401
378
298
332
408
365
294
345
410
352
296
362
409
335
298
376
404
320
302
387
396
310
313
399
386
302
327
410
380
309
353
424
369
303
359
408
336
290
365
400
320
291
372
388
306
301
386
381
297
313
394
353
254
291
405
415
361
420
483
412
327
376
427
345
292
361
383
303
289
375
379
293
303
389
369
285
313
392
354
281
329
395
336
278
342
393
321
278
352
385
302
280
365
377
291
289
378
368
286
308
394
367
291
334
409
359
293
351
411
343
291
366
410
329
296
379
401
315
306
394
394
307
318
403
381
300
330
410
367
294
344
412
352
293
363
413
337
297
374
407
330
316
402
411
322
324
406
388
301
323
406
368
290
336
407
352
287
349
406
336
289
365
406
320
271
338
363
337
372
469
466
378
369
428
398
315
335
397
348
280
337
400
337
285
356
401
320
286
370
396
311
295
381
384
297
306
392
373
288
316
396
358
285
334
401
341
281
348
401
328
287
368
404
322
299
387
401
314
314
400
388
304
327
408
378
298
339
413
362
296
357
417
349
296
370
415
335
303
384
406
321
311
396
395
309
323
407
383
301
335
413
372
298
349
416
356
302
373
426
352
313
393
419
331
309
392
397
310
313
399
384
298
322
405
369
293
339
411
355
289
342
377
301
286
419
475
400
370
444
429
329
331
413
388
290
307
395
368
289
327
403
355
286
342
406
342
289
357
403
325
291
372
398
312
299
383
385
298
305
392
373
288
316
396
359
287
335
405
347
289
358
413
340
297
375
411
328
303
388
400
315
316
399
388
304
326
410
379
300
341
414
364
299
358
418
349
296
368
410
333
301
384
407
321
310
393
393
312
326
409
385
303
337
419
380
312
364
428
365
304
367
412
337
299
378
404
319
302
386
394
308
310
394
378
296
325
398
341
253
322
450
421
363
420
473
376
304
385
429
333
289
368
388
305
300
386
380
297
314
396
368
288
325
399
354
286
342
401
336
286
356
399
322
290
370
392
307
292
378
382
297
305
390
373
294
324
404
366
295
344
411
355
297
359
411
340
297
374
407
326
303
385
398
313
313
399
388
305
324
406
376
298
337
409
358
295
354
413
344
292
365
407
332
302
381
400
315
306
397
400
319
333
415
393
312
340
410
362
288
342
408
346
288
354
404
329
290
367
397
315
294
378
376
274
275
402
441
370
392
465
423
320
343
422
375
297
341
391
324
281
355
392
313
287
369
386
301
296
382
376
292
308
391
364
285
322
396
349
279
332
394
331
276
345
389
315
283
365
390
307
296
382
388
305
314
398
379
300
330
409
369
295
344
411
353
295
362
411
339
298
374
408
328
307
389
400
314
315
399
388
306
328
408
374
296
336
409
358
294
355
413
345
296
372
415
338
313
399
420
333
317
400
394
304
317
403
378
293
327
405
360
289
342
408
347
289
359
402
309
253
345
427
384
373
461
471
362
336
421
408
308
316
390
355
280
328
400
344
281
346
400
327
280
360
397
314
288
373
387
300
296
384
375
289
307
387
356
276
316
393
343
274
332
396
332
281
354
400
327
293
379
404
321
306
395
398
309
319
406
384
299
331
412
372
296
346
415
356
296
364
413
339
298
377
410
325
302
389
402
314
314
401
390
302
325
409
378
299
341
415
363
301
365
429
359
309
384
421
334
301
382
402
316
305
392
389
301
313
399
374
293
329
407
361
287
326
372
307
299
418
483
407
370
434
431
337
324
399
387
291
298
392
377
289
315
399
362
282
332
404
345
282
348
404
330
283
364
399
317
290
376
391
300
297
385
378
289
307
394
364
282
325
404
357
287
347
411
345
293
368
414
334
299
383
410
322
307
396
399
311
319
406
385
301
334
418
372
295
345
416
356
293
362
417
341
296
375
407
324
302
390
401
311
311
400
388
301
324
409
376
295
339
413
361
298
363
427
357
305
381
418
332
298
380
403
315
304
391
389
301
314
401
375
290
326
406
363
280
315
366
322
326
423
481
400
358
412
418
336
317
388
382
292
300
391
374
288
315
400
363
285
334
405
347
281
345
404
332
284
363
400
316
288
375
391
300
294
385
379
289
305
393
363
282
325
406
357
288
349
414
347
291
366
414
334
300
384
410
321
306
398
400
308
317
406
387
299
331
416
376
297
348
421
358
296
364
418
341
296
378
414
327
303
392
404
312
312
403
392
302
328
416
380
296
340
422
372
307
373
434
360
303
376
415
328
296
384
403
312
303
396
392
300
313
404
379
291
328
406
340
247
312
436
410
359
433
487
383
309
389
426
328
293
375
383
293
299
391
374
285
315
397
358
281
332
405
347
278
345
406
331
281
359
397
313
285
371
386
296
293
383
375
286
305
393
364
283
326
409
359
288
350
416
349
294
368
412
330
296
383
408
317
304
396
400
311
319
406
385
299
332
417
373
293
345
418
357
294
362
416
340
298
378
409
322
299
390
403
313
312
402
392
304
325
412
379
302
351
429
376
310
370
428
353
299
370
407
327
297
384
401
313
305
394
391
303
318
407
378
288
307
374
341
321
411
483
413
350
407
432
344
319
398
407
306
287
379
389
300
304
391
373
291
319
399
359
286
335
406
346
283
347
402
331
287
362
393
311
288
372
385
299
296
383
374
290
311
396
368
292
337
414
362
291
351
415
350
298
370
413
332
298
383
409
321
310
400
401
311
321
408
385
301
333
416
371
295
350
420
358
296
364
416
340
299
381
410
325
305
395
403
312
316
411
401
318
345
430
392
306
346
416
357
290
353
412
341
291
368
406
322
294
381
398
309
301
383
364
265
299
447
450
364
396
475
413
312
358
434
358
283
347
396
322
283
366
394
307
291
381
384
295
302
391
372
286
315
399
359
281
329
399
339
273
339
394
319
274
352
388
304
278
366
381
296
298
391
384
298
320
407
375
292
333
412
362
291
350
413
345
293
368
412
332
298
382
405
319
306
394
395
305
313
402
381
297
328
408
364
289
341
412
348
287
359
413
337
294
379
413
330
311
401
410
318
314
399
382
292
316
402
366
286
329
404
349
280
342
404
334
284
359
384
281
249
379
454
378
375
473
457
332
332
423
384
282
310
392
348
274
332
398
334
275
347
397
320
282
366
392
304
286
379
386
294
298
387
370
282
309
394
354
273
321
394
337
273
340
397
327
282
364
403
320
296
383
400
313
309
399
390
300
320
408
378
295
335
411
363
293
352
415
347
295
369
414
331
297
383
406
318
307
398
398
306
316
406
385
300
332
413
370
293
351
427
367
305
374
427
348
300
378
405
318
297
387
397
306
306
398
383
293
318
404
368
289
333
396
316
242
345
464
408
361
443
478
358
310
404
415
307
289
379
380
290
305
396
369
284
323
403
354
279
338
405
337
280
352
401
323
282
366
394
303
288
380
385
292
299
388
371
284
314
398
360
283
336
411
354
289
358
413
339
292
373
411
326
301
388
402
311
310
399
391
300
320
408
377
297
338
415
363
293
354
417
347
292
368
414
331
296
382
405
317
305
396
399
310
319
405
385
304
343
426
381
305
358
425
357
289
358
411
336
294
372
404
318
296
385
392
305
308
398
386
292
293
363
347
328
401
484
431
364
398
431
363
314
373
399
314
288
374
393
306
299
389
385
296
311
397
371
289
325
403
355
284
339
406
342
283
352
398
323
287
369
395
310
296
382
386
297
306
396
383
299
328
408
372
298
346
418
360
295
360
416
344
295
372
410
329
305
389
402
315
311
400
394
308
324
407
378
297
337
414
362
294
352
416
350
296
369
413
332
301
382
404
317
308
400
406
321
330
418
397
312
341
415
368
291
342
411
350
291
357
405
330
291
370
401
317
298
385
383
275
270
395
440
370
388
465
427
326
347
424
377
298
342
392
326
282
358
400
318
287
371
389
303
296
383
381
294
308
393
368
287
322
400
353
282
335
397
334
278
347
395
322
286
367
391
308
294
383
392
305
310
399
386
304
329
407
368
294
344
415
358
295
358
412
343
300
374
406
323
299
386
402
316
311
399
390
303
322
408
380
297
334
408
359
289
350
415
348
293
366
410
332
305
392
419
332
320
405
398
306
313
399
379
297
326
402
360
288
338
403
343
286
353
403
326
275
339
367
317
355
458
463
367
364
431
396
313
345
415
360
273
320
396
344
278
339
395
327
282
356
394
313
286
371
390
303
296
381
379
292
307
389
362
280
318
394
347
277
330
393
332
279
349
399
326
293
374
401
320
306
392
397
310
315
401
385
303
330
410
372
297
346
413
357
295
360
415
341
298
375
411
328
304
389
403
315
311
398
389
304
323
407
376
299
338
414
362
292
356
423
359
309
382
424
341
305
385
402
311
301
391
390
298
309
398
373
288
323
403
357
282
338
399
313
243
343
458
398
360
448
480
359
314
408
412
302
292
382
370
283
308
395
359
278
325
402
345
276
341
399
329
282
358
395
313
286
372
389
299
293
381
375
287
302
389
361
278
318
397
350
281
343
409
343
289
365
412
334
296
381
409
322
307
398
400
307
315
406
387
302
332
414
374
298
347
418
357
295
363
417
342
298
378
412
327
305
393
404
315
315
403
394
306
328
416
384
301
345
426
377
308
370
432
359
302
374
413
331
297
382
402
312
303
394
391
301
314
403
378
293
327
398
331
245
322
451
413
360
433
481
375
311
397
422
316
286
375
386
299
302
390
377
289
315
400
362
284
330
403
348
282
347
405
332
284
362
400
317
287
373
392
303
296
385
379
290
308
396
370
291
331
409
361
293
351
416
349
294
366
412
333
298
382
409
321
306
396
399
309
316
405
386
301
329
411
371
296
346
417
356
294
362
415
340
296
377
413
326
302
389
402
314
313
400
391
305
326
411
377
298
338
414
362
294
355
415
350
299
372
414
335
309
397
418
328
317
402
397
305
317
403
379
295
329
408
364
289
342
410
347
287
356
408
325
264
330
376
351
365
461
468
375
349
416
406
320
329
396
357
282
330
403
348
283
345
402
331
285
364
403
320
290
377
396
308
300
388
382
294
312
398
368
286
326
403
352
280
338
404
340
286
360
410
333
296
381
408
323
308
397
400
312
320
408
389
304
332
412
372
299
349
416
355
296
364
420
345
299
377
412
329
306
392
405
314
313
402
394
305
324
410
380
299
338
414
364
298
357
415
345
295
370
414
334
301
386
413
329
320
408
407
318
326
406
377
293
329
409
362
287
341
410
346
284
353
402
330
291
369
385
282
264
395
451
373
373
456
436
321
326
422
391
293
323
393
344
281
341
398
329
280
355
395
315
287
372
390
300
293
383
379
292
308
391
364
283
319
397
351
279
332
397
335
280
351
394
320
287
371
397
315
301
390
393
306
313
401
383
297
326
406
368
295
344
412
352
290
358
414
338
293
372
409
325
300
386
399
314
314
399
388
300
321
405
372
293
336
413
357
291
352
413
342
292
369
418
343
312
397
420
333
314
393
390
303
313
397
376
293
324
402
356
285
338
404
342
285
352
395
304
257
364
455
392
367
445
453
348
328
409
403
309
316
386
349
277
325
396
343
278
340
395
324
280
356
396
312
285
371
389
302
293
380
376
288
305
390
360
276
312
390
341
274
333
397
333
281
354
401
324
290
375
405
320
304
390
394
307
315
402
383
298
326
408
368
294
345
415
355
295
359
413
341
297
376
409
325
303
389
400
312
311
398
389
303
325
409
377
298
339
415
368
304
363
426
359
306
374
412
329
295
379
398
310
300
388
385
296
308
395
371
289
322
401
347
255
299
385
384
356
431
483
408
338
391
423
337
299
371
378
292
298
385
369
285
311
392
355
281
327
400
344
277
341
400
328
280
358
395
310
282
370
387
296
291
380
373
285
303
390
367
286
325
405
358
287
346
414
350
294
368
414
334
300
383
409
321
306
395
397
308
318
407
387
300
330
413
372
294
346
418
357
294
363
417
341
298
376
410
327
306
395
405
315
312
405
398
315
339
425
393
313
351
423
366
293
353
416
347
294
370
411
328
295
381
402
314
303
395
392
287
278
364
385
354
401
487
445
352
375
432
374
304
355
397
320
285
367
399
314
293
382
388
301
306
393
377
291
317
403
366
286
332
403
346
282
347
405
331
282
360
399
316
290
375
391
304
304
397
392
303
321
409
382
300
338
417
367
295
353
417
350
295
370
417
337
300
383
408
322
307
396
401
311
319
407
387
300
330
414
372
295
346
417
357
294
363
416
342
301
379
411
329
310
401
415
326
324
413
400
309
325
407
373
293
336
412
358
288
348
408
340
288
364
405
324
289
355
360
283
332
457
466
373
384
449
397
313
350
414
352
277
335
405
340
280
352
404
327
287
368
397
311
293
381
388
299
306
395
380
290
317
398
361
284
330
403
345
279
344
406
334
284
360
399
320
298
385
402
313
309
399
392
304
321
406
377
298
338
414
363
292
349
412
345
292
367
412
332
297
381
407
320
305
392
395
307
315
403
383
297
327
410
370
295
346
416
355
294
365
425
354
311
388
421
334
305
384
395
308
306
394
385
294
314
401
369
288
330
406
352
282
335
377
301
283
420
482
398
358
438
434
320
314
414
400
293
299
387
364
283
317
396
351
280
334
400
335
278
350
401
323
282
361
392
311
293
376
383
293
298
385
368
281
310
392
356
279
329
401
346
283
349
408
339
293
368
407
326
303
390
403
314
309
396
389
304
321
406
377
295
335
412
365
295
352
414
348
293
366
410
332
298
381
405
318
305
394
396
310
322
412
394
312
344
427
386
306
351
411
349
290
359
409
334
290
370
402
317
297
383
394
306
305
385
356
262
309
455
451
370
404
474
403
308
363
436
357
286
353
396
318
289
373
393
306
296
384
382
294
308
395
370
288
324
402
355
282
336
402
337
280
349
396
320
282
362
390
306
290
377
386
302
308
398
385
301
330
413
376
299
345
418
363
300
361
419
347
301
379
416
331
306
393
410
321
316
404
398
310
326
413
384
303
341
417
368
298
356
419
353
299
373
421
344
315
401
426
335
317
402
400
307
316
405
384
297
326
407
366
292
342
411
350
287
356
406
314
252
338
428
388
377
468
486
372
337
419
408
306
312
393
364
286
328
402
348
283
344
405
335
282
358
399
318
288
372
393
306
297
385
381
291
305
392
366
283
317
396
350
278
333
400
337
282
357
410
334
295
379
409
324
307
393
401
312
315
404
390
304
332
415
376
298
345
417
361
297
360
416
344
296
374
412
330
303
389
405
318
313
401
394
307
327
414
384
303
339
417
373
306
365
428
363
307
376
418
336
297
380
405
319
303
390
391
304
312
398
377
293
324
407
359
266
299
376
375
354
429
485
413
345
395
424
340
302
371
380
296
300
387
374
288
311
395
362
283
327
402
348
281
341
402
334
283
355
396
316
287
371
388
301
292
382
379
291
305
391
367
285
323
405
361
289
344
411
350
292
363
413
337
296
377
407
323
304
390
397
308
314
402
386
300
327
409
373
295
342
413
355
291
356
412
339
291
369
407
324
299
385
400
312
306
394
388
302
323
409
378
296
339
420
375
304
362
425
355
297
365
406
327
293
375
400
313
298
386
388
300
309
395
374
292
323
388
326
249
340
463
416
358
427
466
359
305
392
417
315
283
369
383
296
298
387
375
289
313
396
361
282
327
401
347
281
342
400
331
281
357
396
313
285
371
392
303
292
379
377
292
310
397
372
290
327
407
362
292
348
414
350
294
366
414
334
295
377
406
322
302
391
399
313
317
405
390
304
329
408
371
298
346
415
357
292
355
411
341
295
372
411
330
304
388
400
312
309
397
390
306
325
409
379
298
337
417
372
305
363
425
360
304
370
409
330
297
379
400
312
299
385
387
301
309
395
372
291
325
399
338
249
317
443
415
355
415
463
371
305
382
428
334
291
364
376
295
300
385
371
285
308
391
359
281
323
397
345
281
340
396
326
277
354
396
316
284
366
387
301
291
377
376
291
306
389
364
283
320
402
361
291
346
411
347
290
360
409
335
296
376
403
318
302
388
394
305
310
400
384
299
325
406
369
291
340
412
354
289
356
413
341
295
371
407
323
301
389
401
312
309
396
388
304
325
415
389
310
352
427
374
300
352
410
343
289
365
408
328
292
373
398
312
299
387
388
300
308
380
345
262
334
468
438
358
400
463
381
303
374
432
341
280
355
388
309
289
375
384
295
298
386
375
290
312
395
362
283
327
400
347
282
342
399
329
278
352
390
310
281
365
384
299
290
380
379
293
310
398
376
297
331
411
367
296
350
417
352
295
366
415
339
299
379
408
325
308
394
402
315
319
406
389
304
331
412
373
298
344
415
358
295
360
416
343
297
375
412
330
304
387
403
320
321
412
405
318
335
416
382
296
332
407
358
289
346
406
340
288
360
406
326
292
377
400
310
276
346
359
331
379
475
457
374
381
432
389
312
346
400
333
277
348
401
324
281
362
396
314
292
377
388
301
300
386
375
288
311
397
361
284
326
400
345
276
338
400
327
277
355
396
316
286
375
397
309
305
397
393
306
322
408
382
297
336
415
366
295
352
418
352
294
368
415
336
299
382
410
322
306
397
402
309
316
404
387
301
329
414
372
295
347
416
355
293
363
418
343
296
378
417
336
314
404
419
329
323
410
395
303
322
411
378
293
336
413
360
290
351
412
342
289
367
411
315
261
339
395
367
375
473
472
370
349
423
405
310
326
402
355
281
337
407
344
283
354
408
327
285
369
403
315
293
381
393
302
304
391
378
290
314
399
363
281
325
400
347
281
343
404
335
288
367
409
328
299
384
404
314
308
399
395
307
322
408
381
297
332
413
368
297
351
415
349
291
364
414
336
297
378
406
320
303
391
395
306
313
402
385
299
328
408
367
289
341
413
356
293
359
417
347
304
385
422
339
310
391
400
311
310
395
382
295
317
402
371
289
329
405
354
284
347
409
325
249
327
422
387
365
448
468
366
321
397
408
317
312
387
363
281
315
394
352
278
330
399
340
280
347
398
325
282
361
393
310
288
375
385
295
297
387
373
284
310
393
355
276
326
402
345
277
345
409
339
291
370
411
327
297
382
401
315
309
399
394
307
320
406
379
295
333
416
367
289
344
414
351
293
361
409
333
295
378
405
319
302
389
394
308
314
404
384
298
329
417
382
305
354
433
372
297
355
412
339
292
368
403
320
296
382
391
300
301
393
379
287
313
402
350
251
318
458
437
360
404
465
392
318
381
427
338
289
362
377
290
285
379
379
285
297
391
367
272
309
397
351
271
326
402
335
268
344
400
314
268
360
394
295
266
365
380
280
283
390
370
267
300
401
361
274
333
415
350
280
346
409
336
281
363
407
319
286
384
407
307
294
390
389
290
304
401
376
284
323
410
356
274
339
419
347
275
352
411
327
285
382
419
327
311
405
410
306
306
399
375
277
310
403
355
266
322
408
337
261
340
402
320
270
349
373
275
268
428
490
383
359
444
434
322
337
432
377
265
304
394
339
261
329
400
321
258
345
393
302
271
369
388
285
277
382
380
274
285
393
367
261
298
397
345
255
312
395
324
253
336
387
307
272
367
402
307
287
389
397
305
318
409
378
283
325
422
379
278
332
424
351
274
358
425
338
280
376
424
322
288
389
411
311
301
407
400
293
318
426
398
305
349
437
386
305
361
424
348
278
358
412
319
280
376
401
301
293
387
378
279
301
400
367
255
286
414
438
392
437
498
419
334
393
446
354
282
359
394
292
269
370
381
283
285
381
367
268
297
396
357
266
316
400
340
262
334
402
320
262
349
397
300
263
361
385
282
272
374
374
277
298
407
382
287
327
420
374
291
352
429
358
290
371
429
341
297
390
426
328
307
407
416
316
323
425
407
306
337
436
395
301
354
442
381
309
381
450
373
324
413
459
365
331
423
437
332
319
421
416
314
329
424
393
301
343
429
374
295
358
429
348
272
343
415
389
396
499
531
432
384
453
449
344
331
412
384
292
327
418
371
286
342
420
355
283
356
421
342
289
374
412
319
291
384
402
307
298
389
380
286
303
391
359
274
316
394
342
272
338
408
339
288
369
416
331
299
391
414
321
308
404
407
316
326
416
393
307
343
427
381
304
358
428
362
300
374
428
348
305
391
425
336
314
406
417
326
335
432
421
329
354
443
400
309
350
425
365
296
362
423
346
291
372
416
328
296
385
405
314
302
377
354
270
340
483
466
380
428
503
418
319
375
432
346
276
352
406
324
284
369
398
308
292
383
386
294
300
392
372
283
314
398
355
274
325
398
334
266
333
390
313
265
347
385
300
276
369
388
299
298
393
387
297
320
411
379
293
334
415
363
291
352
418
348
293
370
416
333
296
384
410
319
306
397
398
305
318
408
385
296
330
414
370
294
350
421
356
296
373
430
350
309
395
426
333
305
390
398
306
309
398
381
291
318
404
365
285
332
408
349
281
338
380
292
259
401
480
404
377
474
467
342
327
411
391
285
299
391
365
280
319
400
351
278
335
404
338
279
353
402
320
283
368
394
305
288
379
382
291
296
387
368
279
310
395
354
275
330
407
350
286
357
415
342
297
378
417
330
306
394
407
316
314
406
397
307
329
418
385
303
345
423
371
301
361
424
352
299
375
420
338
302
388
413
322
309
399
400
310
324
413
390
304
339
426
384
309
364
435
369
303
369
418
338
295
377
408
319
298
385
395
306
308
398
383
294
319
397
341
247
306
440
418
361
428
492
392
311
387
429
328
282
366
388
301
294
384
378
289
305
394
367
283
321
401
354
279
334
400
334
278
353
400
317
277
361
387
299
285
376
380
290
300
392
374
286
317
403
364
288
339
412
354
290
357
412
339
294
374
408
324
300
389
400
307
307
397
387
301
324
410
377
296
339
414
359
290
350
414
346
294
367
410
328
295
382
404
316
305
397
396
305
320
413
392
311
346
424
373
294
345
411
346
286
356
409
330
285
366
399
314
295
382
389
299
299
373
342
264
342
468
440
354
396
459
374
298
372
424
330
269
348
394
312
282
367
384
295
290
382
375
283
302
390
361
277
316
395
345
272
329
395
329
271
342
389
307
270
354
381
294
281
372
377
289
300
392
375
289
321
405
364
287
339
410
349
284
353
408
334
289
370
405
319
294
383
396
306
304
395
384
295
316
403
371
289
333
409
354
285
348
410
340
289
366
409
326
293
383
410
323
312
404
405
315
323
406
376
287
324
404
358
282
337
405
340
279
349
401
323
283
367
385
278
250
368
438
367
374
465
452
335
335
424
384
286
318
389
336
273
339
397
324
274
353
393
309
281
368
383
294
289
380
373
283
301
389
359
274
312
390
340
266
324
389
322
267
343
391
313
279
366
394
309
298
390
393
304
314
403
383
296
326
409
367
289
341
412
352
289
357
411
336
291
374
409
322
297
387
400
308
306
397
386
296
318
406
372
289
333
410
356
289
351
414
345
291
369
417
339
310
396
416
324
312
397
390
298
312
400
375
288
323
403
356
282
338
406
341
282
354
396
295
244
352
444
379
367
461
470
348
327
419
395
291
305
389
355
276
325
399
340
274
341
401
327
278
358
397
312
282
370
386
297
291
382
376
284
301
389
359
275
314
394
342
272
332
400
333
279
356
406
327
292
378
405
317
303
394
397
306
314
404
384
298
328
412
370
292
344
417
354
291
360
414
337
293
375
410
323
299
389
401
307
306
397
387
298
320
407
373
291
336
414
363
293
354
415
348
300
381
424
340
310
394
413
318
303
392
390
298
311
399
373
289
323
404
357
282
339
409
342
267
317
367
333
342
439
475
393
359
417
412
324
316
390
365
279
310
396
358
277
327
402
342
275
343
403
328
278
357
395
310
284
373
389
297
292
382
375
283
300
388
360
275
315
394
345
274
337
405
338
283
360
410
331
295
381
408
319
304
394
398
309
314
403
384
298
329
411
369
292
344
416
354
290
361
416
336
292
379
414
321
296
388
402
309
310
403
391
300
323
409
371
292
340
419
362
290
360
427
354
303
386
430
339
297
383
403
310
300
395
392
296
309
401
374
287
324
406
360
286
337
386
305
260
388
467
393
353
444
454
336
316
412
402
291
290
385
370
280
311
397
355
275
327
402
341
273
341
399
324
276
357
394
306
278
369
385
291
288
382
375
280
299
390
359
274
315
397
348
276
337
404
338
284
362
411
328
292
380
404
312
299
393
395
302
311
402
380
290
322
408
365
287
341
415
352
286
355
411
332
288
372
406
317
296
386
395
302
304
397
385
295
319
407
370
289
335
415
364
298
363
427
355
301
374
412
323
288
377
398
306
296
389
384
292
307
397
370
282
320
402
343
250
304
408
396
348
417
467
386
323
385
419
335
303
377
377
287
295
389
372
282
311
397
357
275
326
402
342
274
344
403
325
276
357
397
307
280
371
386
291
284
378
372
278
298
389
357
274
320
405
353
282
347
414
343
288
368
416
331
295
382
406
313
300
396
400
305
314
409
385
295
329
415
371
291
344
418
353
288
360
416
336
289
374
411
321
296
387
401
307
307
402
390
298
322
412
375
293
344
428
371
301
367
428
349
290
365
409
324
291
379
400
307
297
390
388
294
309
401
376
286
308
371
321
288
397
481
419
361
422
444
350
310
382
396
298
281
378
386
291
295
390
374
283
312
398
357
276
326
401
342
274
342
398
323
274
356
396
309
280
369
384
293
288
381
373
282
303
395
366
282
327
409
358
286
350
416
345
288
366
412
328
292
381
407
315
300
393
396
303
313
406
383
294
327
413
371
290
343
415
351
288
358
413
335
290
373
408
320
297
388
399
306
307
400
390
300
321
410
378
301
349
428
372
301
363
421
343
287
365
408
323
288
377
397
305
297
389
386
294
308
400
371
267
286
373
376
343
410
481
420
340
384
431
352
294
362
387
301
284
375
383
291
297
389
372
283
311
398
358
279
327
401
343
275
342
401
325
275
356
394
307
280
369
383
291
289
383
376
285
305
398
370
288
331
412
360
288
349
414
345
288
365
413
329
292
380
405
315
304
395
395
303
315
407
383
294
326
412
370
291
344
414
350
288
360
414
334
291
376
410
319
296
390
401
306
307
401
389
299
324
412
377
293
337
417
367
303
368
430
357
302
375
411
321
291
383
403
310
301
392
387
296
312
402
375
287
323
403
336
241
307
433
405
349
421
475
379
312
395
434
329
286
371
381
291
296
386
369
282
313
400
358
276
327
403
343
276
343
399
321
274
357
396
308
281
370
383
290
288
382
374
282
303
394
362
279
325
407
356
284
349
416
346
288
367
413
328
292
381
406
314
302
397
397
303
314
406
383
293
327
414
369
290
344
415
350
287
359
414
335
290
373
408
320
295
386
398
304
307
400
386
296
323
411
375
289
338
417
364
299
366
430
356
302
378
417
327
291
379
400
308
298
390
386
295
311
400
372
286
324
407
352
262
306
388
376
347
419
469
393
338
396
421
339
308
381
377
286
297
389
372
285
312
396
356
278
330
402
342
276
343
401
326
278
358
394
307
280
367
381
289
288
379
370
281
298
388
358
276
322
403
354
285
347
413
345
291
368
415
333
300
385
409
317
303
395
395
305
317
407
386
298
331
415
370
293
345
418
354
292
363
415
337
293
377
411
322
299
389
400
307
308
401
389
300
323
409
373
291
338
416
360
292
360
427
357
304
384
426
337
301
386
404
312
302
391
388
295
310
401
375
290
326
406
357
286
339
387
301
248
373
469
397
356
448
463
346
321
412
403
294
293
387
374
284
310
396
356
279
329
403
343
277
344
401
325
277
358
396
310
282
370
384
292
288
380
371
280
301
391
359
275
317
398
347
278
340
407
340
287
367
412
328
293
379
405
315
304
396
396
304
313
403
381
294
328
412
367
290
343
416
354
291
360
414
335
291
376
407
320
299
389
399
307
310
402
386
295
320
408
372
291
336
413
357
289
353
415
341
290
374
420
339
308
396
416
322
309
397
388
298
314
402
375
287
326
406
356
281
338
406
341
282
350
381
285
261
404
464
376
357
454
442
325
329
421
386
281
304
394
356
276
326
399
340
277
344
402
326
277
359
397
312
285
373
388
295
292
384
375
283
303
389
357
271
315
393
341
269
333
400
332
279
358
406
325
292
378
405
315
303
395
395
304
314
404
383
295
328
412
368
293
345
415
352
290
362
416
337
295
376
408
320
299
390
402
312
312
403
388
299
325
411
374
293
340
415
359
291
356
419
347
294
372
415
335
310
401
422
332
322
413
404
309
321
408
382
295
331
412
366
291
346
413
347
290
364
413
328
275
341
372
333
361
462
468
381
375
439
411
324
339
406
359
283
337
412
353
286
354
412
337
290
370
407
322
297
386
400
309
307
398
389
295
315
404
371
288
328
405
356
283
345
409
338
290
370
418
335
303
395
419
329
321
418
418
320
331
424
400
311
349
435
389
307
364
440
372
308
383
438
354
312
401
435
340
318
413
424
330
331
426
410
317
344
433
395
309
357
435
375
307
377
438
362
315
398
443
355
327
422
439
339
325
413
409
317
333
421
390
303
344
424
370
295
361
432
356
292
361
395
305
299
443
486
388
367
460
440
323
336
435
396
289
319
407
366
285
336
410
347
282
354
413
334
285
369
405
316
290
380
392
300
298
393
380
287
309
396
362
279
321
398
342
273
339
404
335
280
362
409
322
290
380
404
311
300
396
395
298
310
403
379
291
326
410
362
282
339
411
344
282
356
410
328
287
373
405
314
292
385
394
299
303
395
379
289
316
405
366
282
333
412
356
292
361
425
348
294
369
405
314
283
375
393
298
292
386
378
285
303
393
363
274
315
396
332
240
301
409
394
345
418
465
378
314
381
415
322
288
367
367
276
287
381
362
273
303
390
348
267
319
394
332
266
337
395
313
266
350
386
297
272
362
374
281
279
371
359
266
290
382
349
268
315
395
344
276
340
406
333
279
359
405
321
287
376
399
304
293
388
387
293
306
399
374
285
323
407
361
280
337
412
345
282
354
408
328
284
368
402
310
289
384
393
299
305
397
383
290
320
413
376
295
345
423
363
287
350
406
329
280
360
400
312
282
373
391
298
293
385
381
288
305
382
332
240
321
459
425
352
416
477
377
302
379
417
316
267
359
389
297
280
375
379
285
292
386
367
276
307
394
351
270
326
401
336
269
340
396
315
268
352
389
298
274
367
381
284
284
382
373
283
309
400
364
279
327
410
355
283
349
412
335
279
361
407
322
287
377
401
309
299
391
390
296
311
404
379
288
324
410
362
282
340
414
348
285
359
412
330
287
375
407
313
293
389
400
310
316
412
398
305
331
414
369
283
330
409
350
277
344
405
327
277
361
402
313
282
377
395
285
258
355
394
345
374
468
438
338
354
425
378
296
338
394
322
267
345
396
312
275
366
393
300
286
379
382
285
294
388
367
275
306
395
353
269
326
400
335
268
339
396
316
269
359
395
303
278
376
393
297
301
399
388
294
314
405
372
286
333
411
354
283
348
411
337
284
365
410
325
294
382
404
309
301
399
395
297
311
406
381
291
326
409
361
286
345
418
351
285
359
419
343
306
395
424
328
303
394
399
300
302
401
386
286
310
403
368
282
328
406
345
279
350
406
312
243
342
438
382
352
441
457
349
318
405
414
316
313
390
355
267
312
400
344
266
330
401
327
267
347
399
313
274
365
390
295
281
380
383
285
290
384
361
270
303
391
344
262
320
398
332
265
341
401
321
277
369
406
313
287
384
396
298
300
398
385
291
316
408
370
283
330
411
355
282
349
413
335
278
360
408
322
288
382
404
307
297
397
396
296
310
407
385
298
339
428
379
297
357
431
355
284
359
415
329
281
373
409
311
289
388
398
296
301
401
386
281
290
370
343
314
402
495
442
374
424
458
368
307
374
402
305
275
372
392
297
289
387
381
285
304
397
366
278
319
403
351
273
335
403
332
272
350
400
313
273
363
391
298
281
377
385
290
300
399
382
293
326
418
378
298
354
430
365
298
368
429
348
298
383
421
331
307
402
416
319
317
412
402
308
331
422
389
302
343
426
370
297
362
428
354
299
379
427
342
309
399
428
340
329
426
425
327
338
427
398
303
336
426
378
298
354
427
362
297
370
424
343
301
390
422
318
275
367
414
372
394
499
496
392
382
455
412
314
344
413
353
287
357
421
344
287
368
414
330
298
388
407
312
304
400
393
299
315
405
375
286
326
408
355
280
341
411
342
280
356
407
328
289
376
406
315
300
398
403
308
313
408
392
301
334
421
375
292
347
423
358
289
361
421
342
292
376
415
325
295
388
403
310
308
401
391
299
320
410
375
290
335
414
356
286
355
419
341
286
368
415
326
293
389
416
322
314
410
409
309
317
406
376
286
324
410
359
277
334
408
340
274
350
407
324
280
364
377
269
263
415
455
362
364
460
428
307
332
432
378
269
308
390
333
263
333
396
318
266
350
393
303
272
363
381
288
284
380
371
276
294
388
360
268
306
388
336
259
322
393
321
260
339
394
311
272
363
394
303
289
383
385
290
301
399
379
283
317
407
363
278
331
406
341
274
348
408
326
280
367
404
308
285
383
402
307
306
401
389
293
322
412
374
287
336
418
355
278
349
421
341
282
366
415
325
289
386
414
320
310
410
409
310
321
413
378
280
321
411
358
272
331
405
336
271
351
403
312
266
364
396
282
243
352
413
350
354
449
434
333
343
423
382
285
319
389
322
253
327
387
305
253
342
387
293
262
359
379
279
272
371
365
265
284
380
347
254
296
382
325
244
312
385
309
244
325
380
293
252
351
383
287
275
377
379
276
290
395
372
276
311
401
352
265
325
407
335
265
345
407
321
271
363
400
304
280
381
392
293
293
390
376
282
307
402
363
272
322
405
345
274
342
411
332
277
371
423
330
298
396
417
308
290
390
385
285
300
401
371
273
313
403
350
266
331
408
333
265
345
391
289
249
387
467
366
340
450
463
344
332
427
401
285
299
392
354
269
323
402
338
267
339
404
325
272
356
399
308
279
374
392
293
287
386
377
279
297
391
359
266
310
396
340
262
327
399
327
269
357
412
326
289
383
413
319
303
401
405
308
318
416
393
298
332
422
375
293
351
431
364
292
367
428
345
298
385
422
328
302
400
414
316
314
412
400
304
330
425
389
297
345
433
381
311
379
448
368
305
383
425
331
295
389
411
313
303
401
398
299
313
411
383
290
327
416
356
255
307
415
407
358
439
508
430
352
411
439
333
295
377
386
295
299
393
377
282
307
398
361
283
333
409
347
277
345
404
326
275
357
398
308
277
368
385
289
282
377
371
275
294
390
359
272
315
404
360
288
348
416
345
290
369
418
332
290
380
411
319
302
396
399
306
316
408
385
294
330
415
374
295
347
420
353
286
360
418
337
288
373
413
325
298
388
402
310
311
404
391
299
327
422
389
303
350
431
371
292
350
411
337
280
361
407
316
280
373
396
303
291
385
381
285
303
388
342
246
320
459
420
342
411
486
389
303
380
428
322
265
354
390
296
276
373
385
287
290
387
369
275
305
397
356
271
322
400
338
265
335
399
319
265
349
391
301
270
366
384
287
281
380
376
283
306
403
373
285
329
416
367
289
349
418
343
285
367
417
331
291
383
411
317
301
396
397
302
313
411
391
300
331
416
370
289
343
417
355
288
360
417
337
288
376
415
322
298
394
411
313
310
404
396
310
339
429
392
307
352
425
362
290
364
426
340
282
374
423
323
283
384
413
311
298
399
393
283
285
380
375
335
401
502
451
365
405
463
380
301
370
417
320
275
375
413
308
287
393
400
291
300
409
385
278
312
416
370
273
334
424
350
267
344
418
330
268
361
407
303
268
371
395
294
293
400
391
284
309
416
379
279
334
435
373
279
345
429
353
289
372
424
326
282
390
430
326
300
395
402
303
318
423
402
296
326
422
375
286
346
427
357
287
370
434
347
296
390
430
333
303
401
418
316
320
432
419
306
324
432
409
324
367
452
388
308
380
453
365
292
378
440
347
299
391
420
319
298
406
422
319
314
407
380
264
286
410
431
359
411
494
435
339
385
447
361
294
368
402
304
277
381
400
295
289
391
382
280
305
407
371
277
321
406
346
267
335
408
333
272
353
397
305
269
362
387
296
284
381
380
287
300
401
377
282
320
415
366
281
339
422
358
286
358
417
332
283
375
412
312
285
384
400
300
299
402
392
293
318
410
368
279
329
414
352
274
346
422
342
276
358
406
316
278
377
408
313
295
383
387
298
318
414
392
304
339
420
361
274
332
403
329
266
355
415
320
270
364
399
300
279
381
392
283
265
354
357
315
368
468
436
347
371
426
368
299
347
395
319
267
351
396
309
274
365
385
285
276
386
390
285
290
382
363
277
314
399
347
263
324
398
329
257
328
387
309
266
352
382
290
275
377
385
285
292
398
378
294
330
416
369
289
343
416
350
282
354
418
345
294
375
410
321
298
389
403
313
315
403
388
302
331
415
375
289
335
416
353
284
359
425
350
291
369
409
325
305
403
428
336
326
415
407
309
311
400
386
305
335
412
360
281
342
416
347
283
356
412
333
282
347
366
292
330
464
479
384
391
459
410
313
336
412
358
269
323
404
350
281
342
403
336
287
362
404
319
287
370
391
302
296
390
384
289
301
392
370
282
312
389
338
264
327
395
329
275
349
389
310
290
382
403
307
291
394
412
321
317
394
378
305
333
406
361
289
340
408
351
288
354
413
338
286
368
409
326
297
381
393
303
299
389
384
299
316
399
362
290
337
405
352
294
362
422
345
292
365
395
308
284
374
393
301
289
377
374
286
299
386
355
267
310
397
336
238
288
398
392
351
420
469
387
308
371
412
326
283
360
382
294
278
367
376
292
292
368
359
302
324
376
351
345
369
362
352
399
393
331
362
452
381
266
361
513
357
313
580
456
178
405
649
432
601
654
653
581
653
653
653
654
653
651
586
654
653
651
573
654
653
650
654
653
653
652
654
654
653
654
654
653
653
653
654
653
654
654
654
653
653
653
654
654
654
653
653
653
653
653
653
654
654
654
654
653
653
654
654
654
653
654
654
654
653
654
653
653
654
654
652
653
653
653
654
654
653
654
654
654
654
653
653
652
654
654
654
654
653
654
654
654
653
654
654
652
651
534
321
272
316
345
344
334
331
332
334
334
332
332
332
332
331
332
332
332
331
332
332
331
331
332
332
331
331
331
331
311
245
245
330
338
253
263
358
351
273
304
389
350
267
314
387
331
267
332
391
322
274
349
394
318
289
372
396
313
300
374
360
289
349
487
488
443
441
448
430
485
454
342
413
611
466
222
534
651
523
580
653
651
488
653
653
652
653
654
653
648
654
654
654
651
654
653
653
653
654
654
650
654
654
653
652
653
653
589
652
653
651
376
653
653
651
240
0
0
0
39
120
102
69
118
168
104
66
126
184
118
64
119
186
127
76
132
201
143
88
140
216
162
103
173
233
166
130
212
248
166
143
226
234
146
148
237
224
145
169
251
222
153
197
270
216
155
224
272
185
126
220
320
283
265
343
361
259
224
312
315
213
212
294
270
195
234
312
266
201
248
101
654
653
651
599
375
274
301
336
343
332
653
653
653
651
545
328
156
654
654
653
653
653
653
653
652
624
394
269
292
336
345
335
330
329
330
331
331
331
330
329
331
331
329
329
331
330
329
329
330
329
330
330
331
329
292
266
336
373
316
303
371
384
297
278
364
364
278
289
373
348
268
305
382
336
267
332
415
353
293
369
403
299
235
307
339
284
328
442
453
359
355
419
383
303
337
411
363
270
308
384
341
283
342
396
338
292
349
383
311
284
370
390
307
301
385
380
301
321
400
372
299
338
403
352
293
350
404
347
306
368
402
329
303
391
416
333
322
408
408
324
339
430
413
324
334
411
381
316
366
428
370
311
377
430
357
314
391
422
343
325
406
415
328
333
426
414
320
336
423
401
329
376
442
386
322
382
438
365
317
394
426
335
301
386
412
330
318
400
401
326
336
406
379
296
326
399
387
367
430
489
426
369
405
425
357
331
399
410
322
310
399
402
319
325
410
393
303
325
409
375
301
349
422
368
303
360
419
354
302
369
404
324
300
384
399
316
313
400
396
308
324
408
384
311
353
426
379
308
365
428
362
315
387
427
349
317
403
430
346
333
415
418
334
344
428
408
326
358
434
393
323
368
428
368
313
381
433
363
320
396
427
347
329
415
426
342
347
431
415
325
343
418
381
307
355
426
367
300
361
423
355
302
378
421
345
311
367
370
300
357
485
483
387
398
462
407
322
363
429
369
287
340
411
352
294
365
413
338
303
384
411
325
312
397
396
308
316
406
397
311
331
410
366
285
334
409
355
297
362
405
330
292
379
412
329
310
397
404
311
313
411
406
312
322
410
385
307
346
417
360
289
354
420
356
307
378
415
330
297
383
406
318
304
392
395
305
315
402
381
298
333
421
376
293
339
407
346
290
366
423
345
302
383
416
328
298
381
391
306
306
394
383
294
315
395
359
282
335
411
345
275
329
371
293
273
417
480
393
354
435
431
322
316
399
379
281
296
391
365
280
314
396
353
277
330
398
333
276
351
402
319
273
358
393
309
290
377
383
295
300
388
370
283
314
398
359
277
324
397
341
278
348
408
336
292
373
409
324
299
376
389
304
309
396
385
300
320
401
368
292
334
410
360
289
346
413
342
285
361
418
332
282
367
399
316
305
391
390
300
314
404
387
300
321
392
354
286
339
407
341
281
356
415
334
287
366
402
321
298
388
402
316
317
403
383
287
305
390
360
280
322
396
345
281
339
397
330
274
347
391
312
267
330
355
330
365
453
435
339
342
414
382
306
337
394
334
261
326
400
332
267
339
395
321
282
365
390
298
279
369
377
286
292
383
368
279
305
392
356
269
310
390
339
276
335
391
323
275
351
392
316
287
374
390
302
303
395
382
292
314
403
371
289
329
402
353
280
340
408
345
286
357
403
325
290
375
403
315
295
385
389
298
308
396
372
287
323
406
362
285
337
409
348
281
348
408
332
285
366
399
311
297
388
394
300
299
391
387
308
334
418
380
296
339
411
353
287
349
403
329
278
362
406
319
286
373
392
301
294
386
376
261
263
383
426
359
384
451
405
319
354
415
362
301
354
391
315
277
362
395
305
280
368
378
294
301
393
377
284
307
393
360
281
328
398
338
274
339
396
324
276
352
387
305
283
368
381
297
297
384
377
292
313
404
377
289
331
411
361
290
345
409
343
289
366
412
330
294
377
401
319
308
397
396
299
310
405
387
295
320
405
370
292
340
409
350
289
356
407
333
296
379
403
313
291
382
394
304
304
398
388
297
320
405
370
290
336
412
353
286
348
411
342
288
364
412
334
300
381
402
318
314
404
400
309
320
405
381
296
325
407
362
283
336
404
340
283
355
405
328
287
367
400
305
263
344
390
364
383
467
448
355
350
413
381
303
339
400
334
269
336
399
327
285
358
387
308
288
372
383
294
291
384
381
290
309
395
355
271
317
391
341
272
332
398
331
272
346
398
322
278
359
393
315
296
379
386
303
312
399
385
300
323
402
364
294
346
408
341
285
361
413
334
289
370
406
326
303
385
397
309
307
396
387
303
322
403
367
288
335
410
357
294
355
412
342
294
367
406
323
295
384
401
314
306
391
384
299
319
411
385
290
325
413
367
287
342
412
348
294
370
420
331
286
373
408
327
308
393
397
312
324
421
401
307
332
416
375
289
336
408
352
288
354
411
336
290
369
406
322
298
385
399
298
276
360
384
360
395
475
439
356
367
418
373
309
356
405
332
281
359
406
327
294
376
399
312
302
391
391
300
310
398
376
294
326
407
363
288
340
409
346
287
357
407
328
285
366
399
315
298
387
397
310
314
402
391
305
333
416
379
299
344
419
365
301
363
417
343
295
374
414
330
302
391
408
321
314
401
396
308
323
410
384
300
337
416
367
295
352
416
352
295
365
412
334
300
382
408
319
304
392
395
307
315
405
384
298
329
410
371
294
343
418
358
293
362
418
349
309
386
420
335
306
389
400
310
308
396
385
299
319
404
370
289
331
408
357
290
350
403
314
249
340
445
398
358
432
458
355
310
395
408
313
307
387
367
285
321
403
357
283
339
407
344
285
354
404
327
285
368
399
313
293
383
391
301
302
391
376
289
315
400
364
285
330
405
349
284
350
411
337
287
368
409
324
296
383
400
312
304
393
388
301
317
405
377
293
331
408
361
289
345
411
348
290
361
409
330
289
373
402
316
302
390
393
304
312
405
384
291
320
405
369
290
333
403
347
285
352
407
334
289
367
403
317
292
381
399
310
307
393
384
302
329
415
378
297
335
409
353
282
343
405
336
282
356
402
322
290
371
390
304
295
387
381
274
273
374
411
361
388
459
413
321
346
413
364
296
348
393
320
281
360
391
304
284
377
392
299
298
387
372
287
313
396
360
281
326
397
341
275
339
398
328
280
356
393
312
286
370
385
299
299
390
384
292
307
397
372
294
331
405
361
291
343
404
341
285
356
402
325
286
368
401
315
295
382
389
305
311
398
379
294
324
403
358
282
336
409
351
288
349
403
332
286
365
401
319
292
378
390
303
305
397
389
299
317
399
368
289
338
420
365
292
354
415
341
287
362
405
321
284
370
393
305
295
388
387
291
300
394
375
291
309
372
329
285
391
474
404
340
412
434
321
278
384
415
312
281
378
397
295
285
374
365
285
313
395
361
280
324
398
347
284
344
399
331
289
361
393
313
289
372
386
299
293
380
376
293
311
395
364
286
327
406
358
285
342
411
347
289
358
405
332
302
375
393
308
299
391
399
309
311
397
383
296
329
413
369
291
338
411
352
294
365
413
338
296
374
409
329
306
389
404
316
310
401
390
300
322
412
385
311
353
426
373
304
360
417
346
292
367
411
326
290
378
400
310
301
391
392
310
321
396
362
274
308
409
419
367
411
468
405
330
373
415
347
308
375
399
312
290
382
394
298
297
387
379
297
317
401
368
291
331
403
353
284
340
399
329
283
365
399
309
284
376
396
303
292
382
384
297
310
395
366
290
333
415
366
292
343
411
351
299
372
412
330
301
384
402
313
304
397
399
311
318
400
384
302
332
415
376
300
345
409
351
289
355
411
341
297
372
400
317
298
387
400
314
316
402
387
300
327
421
388
307
345
414
359
290
348
410
343
290
365
408
327
291
372
394
312
304
392
393
301
296
366
348
317
399
481
432
355
391
429
356
308
372
407
322
284
368
394
308
294
382
387
294
298
389
378
292
315
401
371
288
323
396
347
285
348
405
337
287
355
389
311
288
374
392
306
300
390
392
303
310
395
376
300
338
414
366
294
343
409
349
298
373
410
325
289
375
405
320
305
390
391
308
324
407
380
295
325
409
366
288
340
412
352
292
364
415
335
294
374
404
321
300
383
398
314
311
399
391
304
329
419
387
303
343
419
363
289
346
404
340
293
365
408
322
287
373
400
316
296
379
384
289
277
361
381
354
398
474
431
339
350
403
362
304
354
391
317
281
360
390
309
294
377
378
288
296
387
374
289
318
395
354
279
325
397
342
282
349
399
325
280
361
398
313
285
374
395
309
302
390
386
301
318
405
379
295
328
403
357
288
346
411
347
292
360
408
331
291
374
401
314
299
387
395
308
314
400
382
299
329
409
368
293
342
412
355
296
359
407
335
294
374
413
329
302
386
401
315
317
406
397
314
336
421
388
304
341
412
359
292
351
409
344
293
366
409
329
292
374
397
313
304
383
364
268
302
451
455
366
394
473
408
307
358
430
356
282
347
402
329
289
369
399
315
299
387
393
306
308
396
383
302
327
408
367
289
338
405
344
283
348
402
333
288
361
397
316
291
380
395
307
301
391
390
304
321
409
380
299
332
406
362
298
355
416
347
295
369
417
338
302
382
406
320
308
398
400
311
319
406
387
304
334
412
372
298
349
420
360
293
356
412
339
293
374
411
328
303
387
399
312
314
402
390
300
324
407
372
296
341
416
363
298
365
429
353
297
370
413
332
300
384
398
308
297
384
382
297
308
395
373
291
325
402
357
286
326
372
310
292
418
484
407
367
433
431
332
320
401
390
287
292
387
370
283
311
395
358
283
328
401
345
284
350
401
325
281
362
400
315
286
372
389
301
295
385
375
283
300
387
360
279
320
400
353
285
343
404
340
291
363
407
328
292
377
403
316
302
387
392
304
313
401
378
293
322
403
363
291
340
409
348
288
358
406
330
284
365
399
316
291
378
390
304
307
401
388
296
317
400
363
282
328
404
352
281
340
402
337
288
364
404
321
290
375
394
307
301
392
389
302
314
400
376
297
338
415
367
292
343
408
344
282
350
400
324
285
365
393
308
290
378
387
298
303
390
370
272
283
363
370
350
409
477
422
340
373
418
354
299
356
386
306
282
370
385
299
296
383
375
288
305
391
362
283
320
394
344
277
334
395
330
275
347
390
311
278
361
384
298
285
371
373
285
298
388
368
284
317
399
358
285
337
406
346
286
353
405
331
288
367
400
317
297
383
395
311
313
396
384
296
320
412
383
292
333
409
351
283
347
411
343
293
365
403
325
295
378
397
313
306
392
389
305
321
402
374
294
333
409
364
293
351
413
347
288
358
408
341
305
381
407
321
310
401
405
318
323
406
384
296
322
406
369
295
344
408
343
280
348
406
336
288
363
404
323
279
345
363
322
362
460
450
361
359
415
380
312
341
403
348
281
338
399
332
276
349
396
319
284
367
391
306
294
381
384
294
302
390
369
286
322
401
350
273
330
399
329
266
339
397
322
277
358
392
312
294
380
390
306
312
397
384
299
319
398
363
285
330
406
353
287
350
409
337
287
365
407
324
295
382
402
311
303
395
389
296
309
397
372
290
327
405
359
290
349
408
339
283
352
400
322
287
371
401
314
294
385
394
304
310
404
380
289
318
407
375
298
350
423
359
289
351
408
334
286
367
405
313
283
372
395
304
296
385
378
289
307
392
353
259
299
416
412
345
389
450
383
305
361
417
346
295
357
372
288
284
376
375
283
294
383
363
277
308
392
350
274
326
397
336
276
343
395
317
275
357
388
300
277
369
385
295
291
379
367
278
304
393
360
286
331
401
345
281
346
408
340
289
360
397
317
291
379
397
307
300
389
387
297
309
398
374
296
332
406
355
285
344
414
350
289
360
410
332
291
376
406
318
297
385
391
304
312
407
395
307
324
405
372
304
358
429
369
302
362
413
340
292
366
405
327
299
382
399
312
307
392
386
302
320
404
371
282
304
378
376
362
431
489
417
347
398
436
362
307
367
383
301
296
390
394
297
302
392
377
295
320
399
360
287
338
403
339
281
352
405
329
282
357
389
308
290
374
382
293
296
384
370
284
308
393
365
295
345
409
348
287
354
414
345
296
371
412
334
302
384
405
321
310
392
389
306
324
409
380
300
336
410
363
292
350
413
350
294
363
411
334
297
379
404
317
299
388
394
307
312
401
387
301
325
406
371
300
354
425
365
298
361
414
337
288
365
400
316
291
378
395
308
302
387
380
297
315
397
367
277
298
368
346
341
423
486
417
358
404
425
348
309
377
388
297
288
377
378
290
303
390
369
284
316
395
355
281
333
400
339
281
347
400
326
282
359
391
307
287
374
382
292
295
384
373
286
311
395
366
289
333
406
355
292
354
413
342
292
367
406
326
296
382
403
314
302
393
389
302
317
403
375
293
332
410
362
291
346
413
351
293
361
407
330
293
375
403
318
301
389
394
307
315
403
384
299
330
415
379
305
355
424
363
294
355
405
331
288
366
402
318
293
380
393
302
302
391
383
293
311
386
338
258
345
476
432
351
404
456
357
288
374
418
321
278
364
392
305
294
381
379
291
303
391
370
286
318
398
353
279
332
400
337
279
348
398
324
282
362
394
308
287
372
378
291
297
388
374
284
311
398
365
287
332
407
354
287
348
405
332
286
363
403
320
290
375
394
309
302
392
386
297
311
398
372
290
327
405
353
282
338
404
342
285
354
400
322
285
371
399
312
293
380
388
303
314
404
385
299
329
413
367
283
331
402
343
278
347
402
323
279
363
400
313
285
368
382
292
280
353
350
317
377
458
417
333
363
412
349
299
364
404
316
257
339
388
307
272
359
382
299
288
372
370
284
297
383
363
279
313
396
355
276
322
392
336
281
345
388
316
277
358
393
307
282
370
382
294
300
395
384
294
316
399
365
291
341
410
344
276
345
411
342
288
355
393
316
295
382
394
306
302
391
383
295
312
404
379
291
322
403
360
288
339
400
334
281
359
412
338
302
386
416
334
312
386
382
293
307
399
378
289
313
396
359
284
329
401
342
278
343
396
313
255
348
439
402
375
442
445
351
328
396
390
310
323
395
358
274
316
396
346
277
335
398
332
281
356
397
316
286
370
393
307
292
381
384
300
308
390
363
279
316
397
353
278
330
399
341
282
351
404
330
292
375
406
321
301
390
402
315
319
404
386
302
330
411
368
287
337
416
363
297
357
415
346
299
375
409
328
303
386
402
315
309
399
398
311
325
411
388
310
349
430
384
308
362
427
358
290
359
408
332
296
377
402
316
300
386
389
302
313
400
375
277
291
381
390
363
418
488
425
346
380
416
357
313
374
396
312
292
379
394
307
305
391
379
293
316
402
372
290
334
409
358
298
351
400
331
285
360
402
320
289
373
395
308
298
388
391
301
310
398
377
297
334
415
372
301
355
422
360
299
367
419
346
305
385
415
330
309
394
405
318
321
411
394
304
328
414
380
300
344
419
365
296
357
418
349
300
373
416
341
316
402
419
330
327
411
399
308
321
406
379
298
332
409
362
292
350
411
344
288
357
406
331
288
353
367
305
352
465
468
372
375
437
394
311
340
408
358
279
327
397
340
282
348
400
328
286
365
399
317
291
375
385
297
300
391
381
292
310
393
364
285
326
399
350
278
334
397
332
284
358
403
326
292
375
400
314
304
392
390
306
317
400
375
296
333
408
361
290
345
411
351
292
359
407
329
293
376
408
324
300
381
394
307
308
395
381
298
320
401
365
289
338
415
360
288
350
411
345
299
379
421
337
305
387
404
312
298
387
382
293
308
394
368
286
323
399
350
280
338
403
329
255
316
384
368
355
432
457
366
327
388
393
316
313
384
359
273
309
393
353
277
324
395
335
272
337
391
321
281
363
395
307
280
369
383
295
292
381
372
284
304
388
355
276
321
397
344
275
335
402
339
288
358
395
313
286
375
396
308
299
384
380
293
313
401
371
286
321
401
358
288
342
410
343
282
353
404
331
287
362
394
313
294
380
388
299
303
392
379
293
318
402
365
286
336
416
358
293
359
419
347
295
370
402
314
287
376
394
303
297
384
379
289
306
391
367
287
323
402
349
260
304
383
373
353
425
462
379
327
379
394
324
312
385
375
288
300
386
362
276
310
395
355
278
331
401
336
273
344
402
330
281
356
389
305
287
375
384
293
295
387
371
282
306
393
361
281
321
397
346
280
344
408
339
286
363
406
325
295
379
400
313
303
392
385
294
308
399
377
290
322
406
360
286
340
409
345
284
354
408
335
290
370
397
311
292
379
387
300
304
393
379
291
316
401
365
286
328
402
347
280
346
409
333
280
360
400
317
292
381
399
308
299
394
396
306
321
409
377
290
325
406
354
277
329
394
331
278
351
396
317
282
367
391
303
289
377
364
257
276
429
449
360
382
464
400
288
338
421
349
269
330
389
318
277
358
392
307
280
366
380
292
293
384
370
280
301
390
360
280
322
394
340
273
332
392
325
274
349
390
309
277
366
391
301
290
382
384
293
306
397
375
290
325
404
358
284
341
409
345
285
356
404
328
288
370
400
314
296
386
393
304
309
399
384
294
319
405
366
286
335
411
351
283
351
416
343
289
367
412
331
297
386
405
313
306
396
394
305
322
410
384
300
339
418
369
300
355
419
351
300
378
424
345
307
388
415
328
320
414
419
325
330
419
401
313
339
425
384
302
349
422
361
299
368
423
347
303
392
431
337
301
376
379
306
365
487
474
378
400
464
397
314
372
447
378
290
350
419
358
307
380
423
339
306
393
417
329
315
404
406
313
324
416
392
305
341
428
382
302
352
421
358
296
372
426
345
302
385
418
335
315
407
418
325
328
419
407
317
341
429
392
309
354
433
376
305
368
431
361
306
381
422
343
319
405
417
326
324
415
410
319
336
425
393
311
352
424
372
304
363
427
357
302
377
427
346
309
390
414
329
315
404
403
310
321
414
392
301
331
417
380
303
352
423
363
296
363
419
346
298
378
413
329
308
395
405
313
315
407
393
304
329
412
370
290
339
419
366
293
353
418
350
298
376
420
340
306
387
410
322
306
389
387
301
319
405
376
291
328
407
363
288
341
410
346
289
350
385
302
289
427
475
380
354
437
419
307
315
418
395
288
312
402
357
275
326
397
338
276
344
400
327
279
358
398
314
287
374
391
299
292
382
377
287
306
392
361
278
319
395
345
274
333
400
335
278
352
400
322
289
373
399
310
299
389
390
298
307
396
374
287
320
407
363
286
335
406
344
281
353
409
334
287
367
399
307
285
377
390
301
301
389
376
285
309
396
364
284
326
399
343
271
332
396
327
278
355
395
311
277
363
384
297
291
382
379
287
301
389
365
280
317
394
346
273
329
398
334
275
345
400
321
275
359
392
304
293
385
392
298
302
390
369
277
302
386
351
270
319
394
335
263
329
389
315
268
348
387
299
257
329
352
315
354
450
431
334
334
393
358
291
325
386
327
256
319
388
328
267
333
377
300
268
353
380
292
277
368
371
281
289
380
355
264
299
384
340
262
312
382
322
259
332
390
312
263
346
382
299
280
367
381
293
294
384
373
283
306
394
360
278
319
397
340
271
334
395
330
279
352
392
312
280
370
391
298
288
382
378
287
301
391
363
279
320
399
349
274
330
400
340
279
345
394
317
282
363
386
297
285
379
383
290
297
388
371
280
308
394
357
278
326
399
342
276
342
400
325
279
363
403
320
287
373
392
310
310
395
383
293
312
396
362
279
323
399
341
274
335
399
329
276
354
401
312
276
365
383
279
262
376
433
362
369
453
429
313
318
406
373
287
324
391
334
274
343
397
318
276
360
394
306
284
374
384
291
291
385
375
290
312
392
356
276
325
398
339
271
335
397
328
278
354
398
313
284
373
391
300
296
388
391
298
307
396
373
291
324
401
355
284
340
407
342
283
354
407
327
284
368
396
308
290
383
394
304
304
396
378
289
312
394
356
281
331
405
351
283
344
403
333
286
366
401
313
281
372
392
302
298
391
385
292
312
400
369
284
321
403
360
295
355
418
347
289
364
409
326
287
373
398
305
290
381
388
296
302
387
365
284
322
403
356
269
308
376
340
331
418
465
376
330
398
406
317
311
394
383
285
290
385
374
281
307
395
363
281
324
402
348
277
334
398
329
278
352
394
312
281
370
391
301
291
381
381
291
301
390
372
290
320
393
347
280
341
412
346
287
359
408
328
288
372
402
316
298
382
386
299
310
399
377
288
318
404
366
288
338
412
354
288
352
409
335
288
370
407
321
292
378
397
307
299
391
385
300
317
401
371
288
329
408
361
285
337
405
349
297
368
410
330
294
372
390
300
290
381
383
293
303
386
361
280
312
392
349
274
328
390
313
243
330
443
394
341
410
436
333
286
369
394
303
288
367
356
272
297
382
349
269
313
389
336
268
332
392
321
273
349
395
310
275
361
382
291
282
373
372
282
299
389
364
282
321
396
346
271
325
395
334
278
353
403
327
289
370
398
315
297
382
386
297
303
394
381
295
319
398
363
285
333
406
347
284
353
409
335
286
364
404
321
292
377
389
304
303
390
380
293
318
405
380
299
333
409
361
292
354
419
343
283
361
411
329
289
371
396
305
290
384
390
295
298
387
373
288
312
395
354
274
322
386
312
248
351
461
393
344
420
441
325
286
385
398
294
285
378
368
279
303
394
356
269
318
394
341
274
336
397
325
275
355
399
315
278
372
397
297
284
380
380
290
303
392
367
285
322
405
364
291
