ECG Amplitude,PPG Amplitude
1.0285296049637536,-0.4464941160262196
1.0385847905015542,-0.5575306229879069
1.04530010067003,-0.4909779530704143
1.0460942705810363,-0.5369194962117899
1.039896095633651,-0.48164786521861475
1.0272461822140497,-0.5757955275779061
1.0097897442608033,-0.5656413411034864
0.9893844603914537,-0.5714161276438162
0.9673425385526949,-0.650025458611954
0.9443065118054572,-0.5327915123927198
0.9208416744909836,-0.5714419677974552
0.8983015171362831,-0.5832496189586742
0.8792989732372741,-0.4331103134578026
0.8673395755695554,-0.5963311757256851
0.8656644307515529,-0.5697148393364857
0.8758355082315195,-0.6081175849561472
0.8968080256373185,-0.5900579438578699
0.9250066853102124,-0.5054373223218621
0.9553801991773194,-0.5684295500411515
0.9829208796927311,-0.5138674214812777
1.0039728807498718,-0.6384254758138709
1.0168323708487945,-0.6444770533099525
1.0215421104539733,-0.4769446279161295
1.0191933414032597,-0.6528851700319983
1.0112197979457507,-0.5719387322472063
0.9990122117892656,-0.5982366185408037
0.9838829730211208,-0.49717882162660015
0.9672056804911816,-0.5722328466617645
0.950493938933955,-0.615412457651571
0.9352446458892276,-0.6163639428222087
0.9225677453750266,-0.5993406763854073
0.9128504426450677,-0.5159539982366073
0.9057420111854718,-0.5335347085106038
0.9005601134863167,-0.4422354558537476
0.8969828758753967,-0.519021337997464
0.8957191343512676,-0.4937788213419354
0.8987710579644648,-0.5544695468804901
0.9090086207422778,-0.486504085445475
0.9291109226843166,-0.5132419608997695
0.9602979604711511,-0.5106344471708187
1.0013969681633568,-0.46111394569861497
1.048620378531144,-0.3669897322594755
1.0961476788118498,-0.5413581055344712
1.1373265346758141,-0.5106350603509614
1.166104391267715,-0.5451256306784745
1.1782625367414254,-0.5225006891654541
1.172160897997406,-0.38798080888604614
1.1488858451782367,-0.476691071793543
1.1118412847637258,-0.5083147686650852
1.0659619288704811,-0.5669212718678812
1.016829801226647,-0.6057844406074241
0.9699322105277607,-0.6096723484837309
0.9301024758483724,-0.4692539811202594
0.9010085395025301,-0.44717151308663217
0.8846038080146701,-0.5098788178522669
0.8807096342296945,-0.44423755997176484
0.8870606477458753,-0.45556927381570544
0.8999597384848955,-0.4492028230512757
0.9153089006396546,-0.41355825463712315
0.9295878994403984,-0.5108248379523056
0.940468072326328,-0.4452373860106938
0.9469695254335911,-0.5192089246633995
0.9492197827390558,-0.5979292084960853
0.9479484164517231,-0.6567706478249347
0.9438968304935663,-0.4842108400974947
0.937354087932711,-0.522432492155728
0.9280379333233315,-0.4154281411508612
0.9154485524767108,-0.48856635324331343
0.8995703803856979,-0.452703194692324
0.8815135981084894,-0.5771208554427056
0.8636368271819705,-0.5181741227101443
0.8489661287263088,-0.3143887339444389
0.8401268848438008,-0.5591571041673206
0.8382952075801853,-0.43804456417943344
0.8427309976218762,-0.44998473377478204
0.8512114738012712,-0.3670012071109338
0.8611997654656641,-0.48433876436801343
0.8711387797049234,-0.504344271763879
0.8811603122021735,-0.408653288728182
0.8928045770336543,-0.3496665376707642
0.9078912931785694,-0.46399997421023875
0.9271848851696584,-0.4583943172065166
0.9496208221778145,-0.438410933463371
0.9724849904437068,-0.47866339598537433
0.9923577259573144,-0.43765066136466046
1.0062955490523335,-0.5837543497790412
1.0127838398188622,-0.41249753211782114
1.0122389014658197,-0.4096919426020148
1.0069800402629971,-0.4828817843475892
1.0006047314192412,-0.4570558407322605
0.9968148364410528,-0.4859452176389522
0.9980623856196987,-0.48879068682155874
1.0046339383364675,-0.5679944048373873
1.0146325150496258,-0.3057509321763815
1.024813718456889,-0.42539026190802826
1.0318103503807101,-0.5203431606367457
1.0332146789117074,-0.48522322759764364
1.0281759390001732,-0.51995448137654
1.0173963506514636,-0.3915067574227438
1.002618980749261,-0.44686694492287704
0.9859153831309987,-0.47243502115190844
0.9691848048206522,-0.5668235671847489
0.9541005310198496,-0.4906915214765789
0.9423506250733823,-0.40202039864190175
0.935745323911571,-0.4733977365403556
0.935847885540267,-0.4482268298458174
0.9431694121280152,-0.47722804708673733
0.956378667085108,-0.3569850342634703
0.9721261390045314,-0.5085691340635626
0.9858353893293812,-0.5802086963467101
0.9932918731480249,-0.4716596836908856
0.9923524927019389,-0.49600007722558465
0.9839178298113499,-0.38020031396378573
0.9716127545923179,-0.4133698291201065
0.9602740405373279,-0.457503563309878
0.9539618574630383,-0.5192542143035151
0.9544229142292381,-0.42227156456158793
0.9606397628201211,-0.3836444039421595
0.9695440193993338,-0.48254417376479514
0.9774892234480952,-0.31385606687114675
0.9818254182248906,-0.506446015459787
0.9818980841784086,-0.44922231769368093
0.9790404279369871,-0.4492602748203936
0.9756273132045756,-0.48616018871550637
0.9737733463382299,-0.47891171581740954
0.9744218718887786,-0.39836845145837724
0.9772464243934385,-0.4803104176432122
0.981222582654805,-0.5188848107658159
0.9853365465292462,-0.4815268785623318
0.9889227997756757,-0.45479097153870285
0.9915117893001653,-0.3572352602318517
0.9925044084040234,-0.5317181828522246
0.9911192056075581,-0.28607028489892505
0.9868043404789723,-0.4509758661746421
0.9799274192552889,-0.44071393306084367
0.9723458772230807,-0.3796586707917406
0.9674976757081043,-0.3788572508301496
0.9698480537027747,-0.45202535091435997
0.9837638202212837,-0.3699715505285388
1.012077774929664,-0.43038271345637735
1.0547375002525015,-0.4013550900685776
1.108023631907429,-0.5286462992720983
1.16480413188071,-0.45901177327457504
1.2160184564486303,-0.3762990188992706
1.253056501829212,-0.49535367950693576
1.2701819441243258,-0.4868750022107529
1.2660112010391409,-0.36788453973176666
1.2434445599681254,-0.3049063287073791
1.2081684685575949,-0.3270248478337226
1.166516383522801,-0.325656478660318
1.1237033789050255,-0.5517607208145003
1.0830941035228812,-0.3166048227174393
1.04648847657461,-0.351456081702693
1.014886750855168,-0.36009699154748104
0.9890900121861065,-0.3210224349183531
0.9697519207611738,-0.3972559752924684
0.9569338345409764,-0.4638128410249031
0.9495943447927274,-0.3148862139309072
0.9455403957293814,-0.4106556937906192
0.9421129636384894,-0.4153232531625878
0.9374237368479397,-0.332624611050427
0.9315598343032195,-0.36738802197700265
0.9270598904941219,-0.4283179709200534
0.9282178378309949,-0.46857655986377367
0.9392958369562425,-0.384760961431083
0.9623096315072145,-0.30471854724046393
0.9953929347632821,-0.20316134745618158
1.032587629552681,-0.37438187394168027
1.0652609486114284,-0.4153785705956308
1.0846031023076275,-0.43740202252561877
1.08424789734992,-0.44787754072311736
1.0621277064127719,-0.31735121496383073
1.02106363290522,-0.34944041374764245
0.9680539389495516,-0.3851336664615977
0.9125966657062183,-0.31958645453398377
0.8646106635004218,-0.28703741081894674
0.8325447268549033,-0.5221754032697052
0.8220430553534711,-0.38118663053966023
0.8352150772507616,-0.3353741684055963
0.8704055664769442,-0.4085021567851466
0.9224380230684996,-0.26622326299426874
0.9834072281091116,-0.3990108908660439
1.044023763442179,-0.31800998378624495
1.0952804849923383,-0.4003576978617287
1.1300414167390973,-0.3094872931868004
1.1442236229637046,-0.36819101614971916
1.137432457687769,-0.30744485448646197
1.1129775376562336,-0.34907245042723184
1.0771613104932816,-0.40127739811168944
1.0378400668719734,-0.4489193455728712
1.0025812997250712,-0.27673426577667015
0.9770242201454212,-0.3563861863529348
0.9639945293548056,-0.354206917340275
0.9635520243856458,-0.21996696017556822
0.9737543961010078,-0.28381095048077076
0.9917081531955627,-0.36920148827453625
1.0144476969200162,-0.40673651839752395
1.0393156005188255,-0.40995192903235694
1.0638118836368151,-0.32361254747407303
1.0852212610304068,-0.35874154145079346
1.1004981086219343,-0.35081229665039143
1.1067546164204143,-0.23908146311901113
1.1023062587656045,-0.2415201873989617
1.087788146890568,-0.5520185555349422
1.0666539255048382,-0.3118905608464546
1.04459031577276,-0.4289774405935659
1.0279287248891502,-0.3019381400604891
1.0216881926706787,-0.3946646125507705
1.028109391738705,-0.368294680583442
1.0462769914209384,-0.35668777246767164
1.072820881722232,-0.23572979725357499
1.1031588511401327,-0.3175977025459203
1.132658896883711,-0.4221353300212244
1.1574138394084943,-0.27336883053591216
1.1746723034106978,-0.22982119197886447
1.183076531928542,-0.3796015128277837
1.1827437102633118,-0.4706159614591283
1.1751187482908527,-0.3354913912672233
1.162581991927322,-0.39357860181088994
1.1479436410147705,-0.25003796879337037
1.1340070843018912,-0.29692119300141673
1.1232796495994184,-0.2857881887146674
1.117777193071511,-0.38856785490670886
1.1188268073350034,-0.4104098694698385
1.1268342119094577,-0.32883858011114847
1.1411069982454234,-0.33076456622224504
1.15990293867567,-0.4086270560157606
1.1807769848252256,-0.4595337412798474
1.2010808777493565,-0.3439079025209061
1.2183602542104413,-0.4641857700647234
1.2305272247314243,-0.3124929065051983
1.2359070818328617,-0.21705326158673918
1.2333252526212486,-0.2219040637216365
1.2222921405218663,-0.25271342866370433
1.2032251411838633,-0.3395554267584706
1.1776070830114185,-0.339594474796653
1.1479793548634554,-0.36208729166427855
1.1176896594941814,-0.3085738550015777
1.0903822003695436,-0.2582958537680466
1.0693165220360608,-0.3085389963512101
1.0566872425769422,-0.2585061564456928
1.0531606363798531,-0.25989469038410473
1.0578167085915258,-0.2779082960073008
1.0685596796487193,-0.4221028071557703
1.0828550357526188,-0.3991270413081006
1.098462662684369,-0.4248744651316597
1.1137917108990212,-0.37963834030446597
1.1276761543995437,-0.2812768158020163
1.1387192884810442,-0.29913350875101913
1.144723072574787,-0.32332134296897647
1.142846590199064,-0.4094764568972977
1.1307902279416944,-0.4446000535121909
1.1085609470351416,-0.26773256428126274
1.079769252963464,-0.3581938493078256
1.0514872977747027,-0.32527862128098317
1.0324503691703906,-0.22834637665522994
1.0302803242521805,-0.23904658364365466
1.0489168587843123,-0.3318791140839771
1.0873367399073373,-0.29873810736148626
1.1400102694401135,-0.24682675355010203
1.198743221490822,-0.34921735372484186
1.2550209051470727,-0.27542427882446835
1.3019285565275147,-0.2886928820125525
1.3350877675579806,-0.25170880826646247
1.352592059130886,-0.25930575112985926
1.3543748279795433,-0.2312041182898679
1.3415764593582773,-0.18587505417436542
1.3162658017842963,-0.21384677917052672
1.2814942602423294,-0.24219642346178416
1.2413575411626625,-0.4704493461717412
1.2006873112465226,-0.18116812200145352
1.164224106738898,-0.3403472208631889
1.1354767377013881,-0.29188634136232156
1.1157250271600017,-0.2982669615285745
1.1036449473362129,-0.3172637933931547
1.0958235359854966,-0.23783875231391588
1.0880555236525196,-0.28493349151638353
1.0769266740934533,-0.2396886799846766
1.0610038339373664,-0.34363296271884686
1.041110769454101,-0.27343430936571433
1.0196186947340642,-0.16301519373721343
0.9991889408933197,-0.23406366724766367
0.9816827289919312,-0.27570375210793874
0.9678125828754992,-0.3080352753117026
0.9576197987242683,-0.2977740125617783
0.9513434883148022,-0.28850935314020665
0.9500348396453427,-0.29048229188114266
0.9554543840430436,-0.19641175754830242
0.9692108656505828,-0.32234503336939235
0.9915406590024595,-0.3391100833231965
1.0203935804403323,-0.2755268275843746
1.051409065202095,-0.1832129670125462
1.0789198524744275,-0.20907896939107748
1.0975760499266791,-0.21199613155298958
1.1038906052536444,-0.3212922518727311
1.0970967489816177,-0.16821717820989895
1.0790629712378006,-0.26263109521502875
1.0534385793241272,-0.30396828978975315
1.0245319344055785,-0.20182579428115233
0.9964986681592966,-0.1877260583339061
0.9731355560382335,-0.37677505120489835
0.9580686515976106,-0.27751539947457704
0.9547938882846257,-0.2200768030123546
0.9661604280530465,-0.2720159271388217
0.9933269892864212,-0.2005117344537068
1.0346146126168585,-0.19489480815154064
1.0848431288835243,-0.2890122246124739
1.135661763230589,-0.29360575786795307
1.1770781693204067,-0.18763361774199733
1.1999063264426164,-0.2898543649241445
1.1983724273430991,-0.2500596647927714
1.1719061291821362,-0.23863824228597125
1.1253853057330594,-0.37871105642142067
1.0677310937632651,-0.1300951695697528
1.0094361730238983,-0.17335667600736004
0.9599726146848171,-0.3438951401513441
0.9259269573193379,-0.3734594107729477
0.9102918279390757,-0.39957616035626997
0.9128476404319428,-0.3350675612284338
0.9312074428891959,-0.20349524137086425
0.9619893148229341,-0.19517531109466105
1.0016865962232722,-0.21869219337062218
1.047002817044999,-0.20874664754047506
1.0946483336132777,-0.24338017092263414
1.1408680556366948,-0.23101554053255532
1.1811770417616116,-0.28830381370097674
1.21070306575037,-0.33146196222006685
1.2251600932516133,-0.23171761081891898
1.2220995339231875,-0.2422565489140311
1.2019508978185045,-0.19267882191973232
1.1684397346512096,-0.25368493317490315
1.1281549379500642,-0.1642204792806309
1.0893163176472442,-0.3592822076118439
1.06012772578218,-0.2310802250266579
1.0473115304734415,-0.3136715949868043
1.0553082582010456,-0.34533654248693324
1.0862109123470314,-0.2750212753881437
1.1400796914348623,-0.3177264499061007
1.2151740986377586,-0.24620380889212867
1.3079083426644822,-0.2833936720310357
1.4127427253486786,-0.23730174364758042
1.5224471459662237,-0.21306632446358054
1.62904645890494,-0.2671243906870552
1.7253422615578091,-0.25178899103237307
1.806444462400884,-0.09357804187849153
1.870563472811018,-0.26800955773099033
1.9186094347752969,-0.1696066935828686
1.9527869972667533,-0.19827151219609274
1.974950473307303,-0.17341560283734903
1.985589722220032,-0.24786288332990053
1.9838740212244041,-0.2339946203620045
1.968544953068875,-0.3058217163414243
1.9390773170609217,-0.25204545528646977
1.896530193123588,-0.2644495858139791
1.8436995209553912,-0.18361447801070208
1.7844496918909494,-0.21128781479210496
1.7224676655357296,-0.24262002328804136
1.6600309590740778,-0.19421101529863383
1.5974258560670107,-0.18253347802332545
1.5332927318509542,-0.21939477050237535
1.4656802783940015,-0.17024454092264485
1.3933056584450667,-0.29308834847935117
1.316523996733637,-0.2427174922472227
1.2376803353115924,-0.2546749970940999
1.1607504327381788,-0.18855586932066165
1.0904332702867923,-0.2673254102403023
1.031058528859244,-0.15322324568711546
0.9857165741765902,-0.23258769767556525
0.9558809689588474,-0.22882715832121014
0.9415373623083823,-0.31414207987786547
0.94158062733838,-0.24150978496556913
0.954156955740624,-0.15147115027887836
0.9767859017716422,-0.32543018102186366
1.0063456578937995,-0.21309654375930856
1.0391035071221761,-0.22769550477409198
1.070888703943936,-0.1823916621337263
1.0974039183566173,-0.261002758309273
1.1146594985442877,-0.2702465731354042
1.119520705261372,-0.24107122139334852
1.1102926207277761,-0.3339392269865216
1.087183178209018,-0.15134854875599651
1.052475346440564,-0.18434166376406286
1.0102826171706947,-0.350415405145658
0.9658092961363228,-0.18756641481907357
0.9241576397058628,-0.2128027551962463
0.8889937131458941,-0.2681048562363053
0.8616699063042221,-0.3761397466329791
0.8413783625375529,-0.32663823972202183
0.8264042912543222,-0.24651041005363095
0.8158813117201972,-0.2194369401556422
0.811194084599052,-0.1344443321486707
0.8164844571853493,-0.11397748891591929
0.8381836261355056,-0.277888482253712
0.8836861904942065,-0.213895015710806
0.9592284358226477,-0.149624659222078
1.0671007721753596,-0.26749849613985427
1.2027502294979955,-0.2019847400973412
1.3528987411130509,-0.28289338697014244
1.4960206789498758,-0.3527295292962626
1.6060095282564486,-0.27869879283616494
1.6585604526429034,-0.19592608105002032
1.6381726052887635,-0.2918344106223485
1.5428810040818135,-0.22600974197338702
1.3848167583868507,-0.3344321025393413
1.1868436523019115,-0.26642218258295264
0.9770889302455319,-0.26440484443877416
0.7833218432836258,-0.27005399066997077
0.6284179158622927,-0.2512579600989876
0.5274007409474208,-0.19680002051488252
0.486080568997287,-0.195734027918156
0.5011235461569804,-0.17705379045165434
0.5614224190399757,-0.17139340408102616
0.650657619376497,-0.16408926571731844
0.7506699950505519,-0.22298310128770585
0.8448557459050178,-0.13357991287743562
0.9207031651230793,-0.24224667253621404
0.970994865942789,-0.38013427441178793
0.993801152152796,-0.28072900749068946
0.991760276655555,-0.201942968866296
0.9710637075777013,-0.30695019513890265
0.9402207988017657,-0.11458759216248683
0.9084857298571829,-0.16459745157294542
0.8839931647839413,-0.16202125545855015
0.8719837277934124,-0.21338789299011499
0.8737007396687101,-0.26756196003926813
0.8864365237125097,-0.14104696480481893
0.9048113137845655,-0.23305079933260983
0.9228496872631126,-0.165934266544902
0.9360501232203082,-0.28897986184823155
0.9426427579239132,-0.1250215489255762
0.9436142755587835,-0.18042257644414852
0.9416482618061871,-0.32399546716959443
0.9395938943384315,-0.30325639315665964
0.939223725748715,-0.13617391315467137
0.9408305906281313,-0.2956672992084957
0.9437355903164595,-0.3702234112864785
0.9472415309155401,-0.13676260548620053
0.9512987067571286,-0.3114781845997021
0.9563956770155774,-0.1215982964951678
0.9627975139859805,-0.2036185910055987
0.9697484722446332,-0.21588745236557294
0.9752742668554099,-0.201899949265949
0.9768211232943301,-0.2186244185202396
0.972482274478013,-0.20744177488986365
0.9622521517030708,-0.20263288990112333
0.9487025646478487,-0.23846576769994385
0.9366965385249402,-0.12038289529304462
0.932167275284562,-0.19885109884820792
0.9403866573465871,-0.10371420191705424
0.9643457219539034,-0.3486441151089883
1.003848608759338,-0.20220915950340054
1.055681577148555,-0.2595761181421579
1.1147450123459126,-0.09595838459126503
1.175561622420331,-0.18415907737894027
1.2334854522376673,-0.09942846361441189
1.2852731953485943,-0.1325716564482
1.3290911985074425,-0.30033274566908097
1.3642469372532897,-0.24055569556711773
1.3909383645198177,-0.16336176732236649
1.4101671489857672,-0.24268264674595183
1.4237389635676465,-0.21107406447051796
1.434125399285664,-0.19012551054822546
1.4440118836829936,-0.21053913316495815
1.4555623326935434,-0.15971918375154046
1.4696422777714897,-0.21711962354465875
1.4853630947218486,-0.19271755437703683
1.5003110168907667,-0.26504704012677677
1.511627630417602,-0.23051728973148128
1.517665755571413,-0.24467249778189457
1.5194683722992832,-0.2083158008159065
1.5212129771009328,-0.13918861145231534
1.5292044495153356,-0.20357011738949085
1.5497160222956075,-0.369070935645674
1.586535428123689,-0.24167933796804003
1.6392265859547988,-0.22638195395308064
1.7028566504393887,-0.16971385996591798
1.7693721643316052,-0.18817154212937298
1.830123249420996,-0.1663965904316387
1.8785271560371073,-0.20646735854643325
1.9118354754881355,-0.08602610037090845
1.931444220716382,-0.2454294720427043
1.941830972952403,-0.13097043398981512
1.9486945829519753,-0.1901524582783117
1.9571163959358597,-0.004728086028533536
1.970486701688138,-0.14182753487567576
1.9904702561792373,0.06562925162476188
2.017644297634459,-0.0869913947870532
2.0520988048723607,-0.02614473795450545
2.093474995417666,-0.11976918754253324
2.140448956622565,-0.0632454151409253
2.1901616629386993,-0.15332157942114566
2.2382140554484584,-0.07744455066093986
2.279490744854902,-0.061519400687827824
2.309513699733949,0.01477233341745266
2.3256828958440683,0.037469272950112056
2.327849817845463,0.21795617551075244
2.3180549717293806,0.1350001289196857
2.2996436370217044,0.07095114310580554
2.2761726982055976,0.11392167706582404
2.2505314759261195,0.19608726271750915
2.224566900178073,3.072110977165714
2.199271858565435,2.9337392012942476
2.175358866316227,3.063793256267083
2.153906853925374,2.9493222536328307
2.136754195818373,2.968664304111737
2.1263780731709816,2.9716622996184476
2.1251718716334653,2.969245035978384
2.1343322821744977,2.986106297101531
2.1528606343430523,3.062069014947058
2.177228232611013,2.996904162699458
2.2019539639501913,3.1247131298069237
2.2208649019161655,3.082774328436431
2.2284694605969433,3.172907219722741
2.2208865242519726,3.4034453922659944
2.196122265757875,3.3161768412631685
2.153911612582342,3.3576503024047315
2.0955138977610366,3.4327371529807063
2.023661305975403,3.5978989354998365
1.942539490902149,3.6633896616580452
1.857544384087646,3.689243096162348
1.7746644249737917,3.918218770083056
1.699533655026774,3.9727243521636164
1.6363816745963258,4.005704700216955
1.5872387544139155,4.3279542689841906
1.5517661929478355,4.548211870777004
1.5278841326206982,1.8681426196982893
1.5129859415747067,1.8761856296689599
1.505168110436104,1.7524893618735586
1.503846368570645,1.6885061602917635
1.5094467525038064,1.6889672339157553
1.5223339079838611,1.7604433033581464
1.5414952231145245,1.6826634824331586
1.5636027063403062,1.6125751941395432
1.5829173097996807,1.6520417399981697
1.59218813445723,1.599247365812806
1.5843697695644807,1.546672508407998
1.55468292399779,1.6095392865438065
1.5023064908288672,1.5560460213404639
1.430964450742187,1.5751079081127133
1.3480180995220759,1.3798824183775222
1.262311683500728,1.4636634695069903
1.181605870791758,1.5175660081590063
1.1106184050885564,1.4380719972722682
1.0503672816132479,1.5000274697397036
0.9988669327452055,1.3951241943465826
0.9526228311378109,1.7051100379007025
0.9081343657561762,1.7140541729811538
0.8628394977155256,1.8835225264566187
0.8153910117446777,1.9152745720185593
0.7654944614903747,2.0668253472367257
0.713608006158355,2.171770718968731
0.6607125836607224,2.0448907535528513
0.6082485284268155,1.8511881416779405
0.5582045522711635,1.662697309435379
0.5132150611541563,1.5298721843740541
0.47640988184970023,1.3101457996995785
0.45080039579890074,1.2125054812331983
0.43828649748193904,1.2186786317663545
0.4387703947161359,1.1103213002999364
0.44997841480142153,0.9688163725752342
0.46821854390556583,1.0270191665144406
0.4896912558090005,1.0349260910892562
0.5116117767787426,1.1064805679200544
0.5325683822940155,1.1038303575504356
0.5520823183521628,0.9854539928572493
0.5698400883061534,1.1076342555174141
0.5851995738447211,1.008558856993624
0.5972954133343779,0.9557021897338766
0.6056380922553779,1.0103865253567508
0.6108070088338515,0.7662057812686816
0.6147996236063953,0.9672403708492302
0.6207597303700969,0.9374552137711305
0.632061668749731,0.9084912336952289
0.651002139164705,0.9704731040027241
0.6775803573491102,0.8863012484384507
0.7089153619565096,0.8250964387260186
0.7396514298853609,0.6785323984958992
0.7632940205203159,0.7261543362479858
0.7740233202029615,0.8209493682409217
0.7683512530241534,0.7078497716203506
0.7460772193293532,0.8047984651685018
0.7102939289873827,0.6220163262531107
0.6665421030446597,0.7170936014976242
0.621447895269051,0.7862287998666418
0.5812565766101228,0.673936260007992
0.5506562671293679,0.7097311234588415
0.5321834010837015,0.7211101104591973
0.5262793810344859,0.6168942812655756
0.5317704522517344,0.7435474135699732
0.5463602413987607,0.7300189026460188
0.5668366279516874,0.5483946274519654
0.5890619936975431,0.5671399019527121
0.608152497827732,0.5636018675375912
0.6192448822778391,0.6410508499052076
0.6188522308846449,0.6404958239257827
0.6063011729212653,0.42660002837606037
0.5844929234604079,0.541615459393612
0.5594421426567697,0.5467835262514179
0.5386168552068666,0.4895073464897817
0.5286668130236719,0.5539102952512581
0.5333603294128421,0.5530375793027026
0.5524230814136913,0.5644437072267887
0.5816487782021131,0.5459319388154291
0.614239624502995,0.4695977936922955
0.6429082099744988,0.546977486517048
0.661987659499018,0.3874077508245067
0.6688099653057733,0.43596644837337684
0.663953306473128,0.42548103401710613
0.6505063532730966,0.3478169100365107
0.6329512357117368,0.3491341123588407
0.6162622861730954,0.32735937830521894
0.6053231411085807,0.43777003666155684
0.6042730819152236,0.42020420535353126
0.6154516253260369,0.45227870866483183
0.6381876081737567,0.29388534875511385
0.6681860347685444,0.3011171476681492
0.6981898833721369,0.33583817968508933
0.7199681019563993,0.4577553801511544
0.7269419417409957,0.434712323191389
0.7163510122729368,0.30432525992863413
0.6900141390873993,0.2884326649828923
0.6534100090279761,0.3313747890231428
0.6136119855935207,0.2587373453318618
0.5770598212972106,0.44040166892807614
0.5480233876479612,0.30580446720599513
0.528126613954917,0.26860823694190233
0.5168175887077702,0.24113676830652328
0.5123814830030916,0.25648230286587337
0.5129889187304608,0.26197854938350074
0.5173243736103893,0.326036398663103
0.5245715405356588,0.3103401857932049
0.5339097052834407,0.19479764824506948
0.5439959917481924,0.28548372611726497
0.5529252772229651,0.1786052647759643
0.5588257753701131,0.19256754685962435
0.5607921985161123,0.2724603999526878
0.5595976818250534,0.1899758344837327
0.5577116986384307,0.20398358482762863
0.5584852095205988,0.31002100977653674
0.5647475833812241,0.17362254237973257
0.5773627924910105,0.17869207124388461
0.5944194131189744,0.11656761305437957
0.6115489262362791,0.25673331374263736
0.6233716541662552,0.17481267454602986
0.6255172060312654,0.11018610148829751
0.6163782413759857,0.2052970102544435
0.59785675423893,0.2671542935333968
0.5747855308826617,0.23494861980541001
0.5532761225997377,0.08874793467173757
0.5386963977187871,0.23867709021798758
0.5340920555054973,-0.22144000444580567
0.5395875684182014,-0.19857365551326692
0.5527848622814735,-0.32948458625982924
0.5697264933984367,-0.24872254409626107
0.5858801766774462,-0.3454175623327688
0.59684946695193,-0.4163607852526598
0.5988673888664378,-0.29310795279370555
0.5893006840763169,-0.1776518139995474
0.5672870640371982,-0.29821985934356865
0.5343753087583063,-0.18504399791961787
0.4948609834463428,-0.2798954650644146
0.4555186822668278,-0.22391601033597858
0.4245478128311506,-0.2798406030930523
0.40971350086528946,-0.333481395209326
0.41597926336214874,-0.23856649645662878
0.44339405234482976,-0.30207093875976604
0.4862581881070577,-0.25243926625294244
0.5342478918729063,-0.2949842327692472
0.5753022813301368,-0.14575495848713402
0.5992204958788945,-0.3335175125293922
0.6005908620154656,-0.19945931707009307
0.5799989792795129,-0.20859155741237417
0.5432320653229463,-0.2762449589806003
0.499032918402493,-0.1274992759477606
0.4564359273100541,-0.3831772286864218
0.42263217972676426,-0.2484122949738352
0.4018378874040186,-0.3320023928160806
0.3951434434234524,-0.3685019030387516
0.4010263554369512,-0.23581718805999088
0.4161346454528698,-0.1713144129658124
0.43602123437063933,-0.1709347028665591
0.455692965091513,-0.2848933653085025
0.4700798857841987,-0.28312833471138926
0.474677299861076,-0.14892019091201053
0.466497758295497,-0.26878777256100284
0.4451468056224914,-0.24531520253327857
0.4135683254055039,-0.2481709997407008
0.377982820082283,-0.3668320889870232
0.34674876883152994,-0.32486597998182604
0.3282373208816648,-0.2088650650347214
0.3282695590574656,-0.35216857441156424
0.34804361785461024,-0.22937157813468875
0.38346628600431976,-0.38345413309609155
0.4262848733480149,-0.3583119395726455
0.46665611388275585,-0.2692376639183213
0.49619759383650197,-0.2633448869326372
0.5103954339422774,-0.33195340797916606
0.5095332746080662,-0.30464676621081066
0.4979380929431714,-0.3987935016137168
0.4820232464734252,-0.165326735353152
0.4680158319054959,-0.20268105631890354
0.46022930509552096,-0.31929067550530865
0.46037617432044675,-0.21894246768709288
0.46790519923000473,-0.24679336474395136
0.4808950558312901,-0.3198093510800054
0.4968683485141496,-0.23832470925314195
0.5131549738130143,-0.24605834015448075
0.5269556075800951,-0.2585777127707183
0.5355515965199623,-0.3127838655780719
0.5368853607128735,-0.20611317059466963
0.5302675545248987,-0.24098240982846264
0.5167453723584032,-0.30786349247846084
0.49884172167238494,-0.20715028358555282
0.4797397684501573,-0.27181281629282694
0.462294414402603,-0.2305326583800201
0.44833753953279,-0.3044529680678871
0.4385427423826539,-0.3246508267228396
0.43276787311361786,-0.3208437412142704
0.43057464040570814,-0.1693783022370062
0.4316378160695489,-0.28287766896192323
0.43586980985617807,-0.30592692568084895
0.44321051408113854,-0.26985377715436853
0.45320829718410527,-0.2758991262920624
0.4646937185714881,-0.30020027545416655
0.4758473151273348,-0.42250137192211473
0.4847409520968208,-0.22603384643031912
0.49015816379539545,-0.4577994118482637
0.4923430887574979,-0.3553316720280157
0.49330758890531323,-0.17691359144804508
0.496408656696362,-0.28733972600798974
0.5051254200787989,-0.3102276117661522
0.5213387982538836,-0.4382604098714573
0.5438191671069131,-0.43167150573206253
0.5677789453888905,-0.2981785288392827
0.5860046074278578,-0.3483609230610545
0.5912984099841025,-0.3274402187469622
0.579174703697481,-0.35784642830037805
0.5495359110063283,-0.35073854438464763
0.5066017864724319,-0.3842981983880653
0.45730029412856377,-0.36111346749520357
0.40903232179193927,-0.39463814258640156
0.367850444310312,-0.2344128771252096
0.3376975065501099,-0.2771465592322497
0.32071484811336004,-0.2972427324234665
0.318098730779263,-0.3700697636450256
0.3308227366509747,-0.3008677096588611
0.35979089431308053,-0.2544585094313686
0.4054268921070777,-0.3585487334911233
0.46702685584926174,-0.21620447611534332
0.5422473611574035,-0.35927647046203776
0.6269746716165842,-0.34817153645660487
0.7156947153265794,-0.43215693233886754
0.8023636408460472,-0.1669599182038258
0.8816171803501804,-0.31458196627282753
0.9499960332032149,-0.26997793623742056
1.0067742288731474,-0.32883563987588427
1.054020850426687,-0.19522239362719235
1.0957717482130134,-0.4363971006892942
1.1365740077368574,-0.36626444172656086
1.1799357405917015,-0.4078844021475639
1.2271752305848433,-0.3362644803699235
1.2769073421108104,-0.321401390807442
1.3251539582800327,-0.34645450862244037
1.3659449035210596,-0.4137329887411606
1.3922877366018382,-0.23395440057220396
1.3974416049569012,-0.25605767075629193
1.376411061045404,-0.3262310907011717
1.3274504417306965,-0.4127266523915639
1.253215995200784,-0.22381666903599515
1.1610989108961727,-0.3346264620626438
1.0623050996664751,-0.2307976246142853
0.9695511617040999,-0.21900059655934728
0.893822476213842,-0.28935405365419153
0.8412134156184629,-0.26913907091420197
0.8110649908450841,-0.36353088487306207
0.7962352133197369,-0.3339932449074731
0.785502263764415,-0.34132922798864357
0.7672128003191538,-0.44235868480483154
0.7328173041007279,-0.35073353118958406
0.6791166054069282,-0.3017747201878527
0.6087106338903766,-0.34240623784589175
0.5288618619776548,-0.3997957899629956
0.4494254984162618,-0.2762268379490125
0.38058140186160494,-0.3044219605485903
0.33090408361092216,-0.38879457442043286
0.30599561492533933,-0.4242057821366958
0.3077036974343508,-0.35827740305539546
0.3339122705629629,-0.4557329268740795
0.37887863335388594,-0.486258683074948
0.4340309172941943,-0.39611922283285594
0.4891233371323679,-0.384607755845934
0.5336910838027791,-0.25952708107718214
0.5587469529542552,-0.27508279032123534
0.5585591940647596,-0.3556761986661038
0.5321830122241709,-0.33078041980874867
0.48426739291567533,-0.30811923515367623
0.42462391271092603,-0.3425293063052976
0.36624058850277263,-0.5106879779158346
0.32193981464200094,-0.2989164937129661
0.3006197781804416,-0.3132301140573944
0.30457126017207226,-0.3914265287089228
0.3291955263870122,-0.49492113180444935
0.36543483943208144,-0.4190609344394229
0.40392623354495727,-0.47946548880639345
0.4391112320089886,-0.4262491560225446
0.47163823825977946,-0.39530631361454754
0.5081797498819086,-0.3688945784551375
0.558813725295775,-0.32071761624398915
0.6329279595809565,-0.29585143991379326
0.7349221339928722,-0.36850349079443423
0.8608928918735985,-0.373348546830623
0.9972848771420791,-0.3384663815168953
1.1222733333531507,-0.3412958432035159
1.2101538096031674,-0.5509562674072724
1.2379500179983431,-0.33788631341397857
1.192099969959761,-0.42293851192121407
1.0725603875157443,-0.36003400865971114
0.8928522429554009,-0.4084623232753379
0.6766593827014027,-0.3247719379955464
0.45280998910253,-0.3367055350012783
0.2502144739730179,-0.44572031395840694
0.09350541536901191,-0.39346878640037525
-0.00039326169859132953,-0.4506433040076706
-0.02462150554795528,-0.3516706809992856
0.0166514319539266,-0.35585220771650966
0.1091387691168938,-0.20641609047132173
0.23152663143817742,-0.6167227141054472
0.36029484935398126,-0.3080697341667749
0.4749078677004115,-0.417769107120355
0.5617018486969678,-0.4460216831599244
0.6153884240825163,-0.4606294231696652
0.638157901856649,-0.2949155093540997
0.637203406301207,-0.4632503618597708
0.6217593761547275,-0.29090928020623075
0.6005724565239867,-0.31911130361032475
0.5803502891618795,-0.31662929756346053
0.565288391331129,-0.4054384248128984
0.5573587961779563,-0.27466085049818617
0.5568478431859865,-0.4184551609512491
0.5627699112556275,-0.3558611501778525
0.5731200664922075,-0.4217473985105489
0.5851714359877622,-0.3997167187367483
0.5959982701162612,-0.5048721840881071
0.6031858198443156,-0.4204490775278947
0.6054757992639257,-0.2980328589586113
0.6030311669152675,-0.3759894398323851
0.5971123433978225,-0.2920052142201428
0.5892110758621218,-0.3606922269760383
0.580004980309262,-0.3206156570242873
0.5686967211249807,-0.2615012456315285
0.5532064780521457,-0.5214193758531107
0.5312845954582865,-0.42354693147965056
0.5020971497329763,-0.4175251061010756
0.4675032704146872,-0.4034324784668462
0.4323242765554741,-0.42557056680575417
0.4033892106541336,-0.46381402042496317
0.38772484293118437,-0.3044465908783449
0.39059886480953887,-0.33300334183571567
0.4141114771714999,-0.41451568092465735
0.4567485404577635,-0.32768509793766126
0.5139103746546603,-0.49541387791497626
0.5791096562872204,-0.4754021631583525
0.6454460840992683,-0.38889578201666
0.7070699458218769,-0.26551818786879106
0.7604220169230855,-0.4206917308819132
0.8049649785462594,-0.39757850316541543
0.8430660401871395,-0.36757927689140535
0.8788821052584302,-0.5262844009868849
0.9165136294466444,-0.24692947041680272
0.958081217159442,-0.4685269393452645
1.0025011408716469,-0.41541632086119396
1.0455027262665797,-0.32495834515728916
1.08094615423415,-0.38325460294126196
1.1030010867581113,-0.44870745856802874
1.1084363017928558,-0.4102685454316749
1.098232991547903,-0.5003552216015774
1.0779667329932583,-0.47370087987424964
1.0568047307558806,-0.46320646302081747
1.045371514750605,-0.42832004977148985
1.0530536221281337,-0.4270535937072757
1.0855208078234124,-0.3863746222357405
1.1432548395020252,-0.3726721157578696
1.2215872327371227,-0.5076831840885992
1.312218345273047,-0.44205067755282557
1.4056638755182442,-0.3306651245377697
1.4937605207072868,-0.38815196798094265
1.571362894973765,-0.42138378666355764
1.6367129376800893,-0.5645354887155236
1.6905388471148741,-0.41616762450717804
1.7344571665950246,-0.3298039883946417
1.769478954073937,-0.3800786553099781
1.7953011435170916,-0.39226128129507004
1.8106540918601386,-0.48309206413631534
1.8144515043962413,-0.41023432082473377
1.8071097315340707,-0.46129753372985616
1.7913412749411077,-0.20527925096988373
1.771984474770406,-0.5139838022750031
1.7548883705736085,-0.34517744287506485
1.7453125658932658,-0.24495806309431958
1.7465044612420453,-0.3032145024683351
1.7590105718306548,-0.4017324136301812
1.7809468864815194,-0.33498845250831494
1.8090215289338931,-0.339873824310039
1.8397497716926643,-0.3312595442544969
1.8702632705557274,-0.22783113409314915
1.8984772179434364,-0.15525589399811568
1.9228692867351707,-0.3443614250036941
1.942318561687068,-0.28544314903971896
1.956237741313942,-0.2369356657432841
1.964887504417924,-0.22620477175362302
1.969572000610877,-0.12863386343208028
1.9724356460064847,-0.1274175340118863
1.9757732391873986,-0.20270939538736166
1.9810632065150313,-0.09471637819832827
1.9881824214517994,2.865757111886398
1.9952755489798872,2.7574884525003966
1.9994762186699304,2.8138024944568336
1.9982416828924823,2.8396482979792186
1.9907140022456913,2.816554970527991
1.9784685220904077,2.742221800366669
1.965268596636682,2.8782896008914833
1.9558535836386743,2.8258161442008323
1.954168733157232,2.860880746185383
1.9616625299541757,2.8739131654448546
1.9762420241474197,2.833508912066061
1.992256746832453,3.1018074371866895
2.001639164027207,2.8908078376096724
1.9960719242387324,3.1448042246511436
1.9696663237217114,3.0557351634772463
1.9212298244448547,3.1228092464004487
1.85513944413671,3.065164060163456
1.7803328928125342,3.208023082288566
1.7077449898098906,3.400334512830615
1.6471743085189,3.5015369930577283
1.6047350355577776,3.6259306544870977
1.581711788417953,3.682340630444279
1.5749934361476554,3.89629406383127
1.5786232671085845,4.098773101899709
1.5856747774530486,4.186970735237508
1.5897886650463087,1.5659069229444518
1.5861277508872347,1.5625339801921927
1.5718632133765602,1.5128218310176482
1.5463694142007358,1.282388616785605
1.511166202568423,1.3635823058292782
1.469539796787629,1.3268540835757472
1.4258096911788434,1.3977523509107832
1.3843501906487043,1.3906088282231022
1.3486203112158766,1.375939511312097
1.3204931555528883,1.3086068750580808
1.3000653187651587,1.3253602921789158
1.2859551097057758,1.1936923994900466
1.2759534107071704,1.2718739827993055
1.2677675400410264,1.2279878568811133
1.2595211323180604,1.1462876853424655
1.2497545194855417,1.192781257359274
1.2369429849032185,1.13519411454677
1.2188639376530412,1.1021029335189407
1.192295733515202,1.1780263465221685
1.1534264864858015,1.2857032180139638
1.0990240751309777,1.3684987329379625
1.0279898183211025,1.4523053670137012
0.942593659964059,1.5846115843867277
0.8486979797788057,1.6043058284778993
0.7546930491067128,1.8814162796550804
0.6694883683255906,1.8259008705622062
0.6003756933139283,1.7390861405492548
0.5516296394154643,1.6059468478606165
0.5243123062721191,1.4128886151117277
0.5171341322847601,1.2520521711500017
0.5277386456755714,1.0211955542254247
0.5536506799602469,1.0103290024184515
0.592386775719201,0.9363205158276467
0.6407651951374079,0.825605239361945
0.6940216523518572,0.8314716396219545
0.7455713914668721,0.6335753948332654
0.7879361210992801,0.7622749121789784
0.814646935015612,0.6944087719020611
0.8222960018694915,0.5881790743136105
0.811721669846112,0.6846305965283936
0.7876602997089628,0.7013698022657636
0.7569032605041155,0.7491843066149415
0.7257297813416008,0.6297537668428056
0.69777989511147,0.6887468013309476
0.6733489798291881,0.5693410061571023
0.650385837755749,0.7321646711331082
0.626616872632588,0.6520658958675144
0.6016617095633077,0.5545267931027524
0.578047998453552,0.5382053462608124
0.5606248042749324,0.5017913807389736
0.55467343436959,0.5051403437396865
0.5636159018478077,0.48549022065953246
0.5873562392858918,0.46283893904983364
0.6219446638239937,0.44531676014744614
0.6606501834830119,0.4814050294498946
0.6959548731159468,0.3829173130795775
0.7216626666743415,0.44341374652246424
0.7343497521010391,0.4118586978353451
0.7337296788068393,0.2959091488765639
0.7219916035541919,0.352466976627599
0.7025840356750677,0.4192612245781684
0.679093271812707,0.30364283975510514
0.654727304377629,0.4963811908687957
0.6325063501756103,0.30784063761171837
0.6157735281747101,0.40298630479402026
0.6083828221871135,0.29984735538172985
0.6141192307831715,0.2829042722947336
0.6354436544599105,0.21788645975321838
0.6721525651579533,0.3811708693931426
0.7206970190950435,0.22390758483003922
0.7746565360844706,0.28296222478117455
0.8263219521933018,0.14614598539208642
0.868748153769924,0.25279846801418165
0.8973477066572692,0.19686429740831213
0.9103736645671593,0.10920060421379539
0.9083346101375026,0.21383379691338816
0.8929686372273249,0.054643233125996546
0.8664708297635493,0.18782638821254216
0.8313014953854891,0.18915092416117787
0.7904637569213452,0.09758569879296748
0.7478636405859012,-0.1057517631745686
0.708279063223908,0.21117878857096792
0.6766075707748292,0.036799567744777766
0.656495573447594,0.16118680107477873
0.6489695715753501,0.20569358503117302
0.6518670134535417,0.1320245707291984
0.6605078077356425,-0.00977457283057717
0.669403110547747,0.0303870076546206
0.6742904137536377,0.06577422906090612
0.6736770052493237,0.007314881986949928
0.6693286166169217,0.022491765826091296
0.6655413316621391,0.0026492216248237394
0.66744110925021,-0.016427415883660625
0.6789180916153255,-0.01849003945468242
0.70099863481493,-0.01806151865820872
0.7313249830699663,-0.13262314594282196
0.7649486355931111,0.01465158357919967
0.7960513274317849,-0.1815863229932716
0.8197873089090065,-0.11878866043358036
0.8334439299442788,-0.08850554138060791
0.8365676121571909,-0.007156750679901333
0.8303060975828098,-0.0513919137493969
0.8165678057277382,-0.0388637799887923
0.7975111730762109,-0.09497587937438114
0.7754869162445768,-0.06824234658051868
0.7531677773816513,-0.17666554315720417
0.7334924352174851,-0.23769079560236642
0.7192641711241623,-0.12211998839831846
0.7125294313028496,-0.2684206674349499
0.7139794368816081,-0.1642931733119196
0.7226034636657837,-0.19252810480162658
0.7357976706460172,-0.03755588558392013
0.750058458744048,-0.13011945454281923
0.7621557959629685,-0.00268462429171037
0.7703578482003679,-0.20424852491860418
0.7751159937244365,-0.15865256724393073
0.7788023521738382,-0.18525446626472478
0.7845551743683066,-0.05741848551619882
0.7947677588703698,-0.14306791730205845
0.809946639007217,-0.22399774589703467
0.8284321480037963,-0.28630371026742196
0.8470151770828345,-0.2658464751170406
0.8621224512319865,-0.17464164809702992
0.8710916276166201,-0.2552530143206515
0.8730502170101624,-0.23263716952798752
0.8690477911926974,-0.611972431514622
0.8614100654742145,-0.7357959289265714
0.8526867132762923,-0.6194944635822514
0.8447978156668229,-0.6582200961869611
0.8388234642043408,-0.6956764834074136
0.8354035446376357,-0.4918374731992999
0.8353125283987644,-0.6973341667944497
0.8397510510550963,-0.548688525340097
0.8501645975774709,-0.6806496192411283
0.867681423614995,-0.7113243201243152
0.8924130096752942,-0.7752616544793948
0.9229134972054153,-0.6197562510308274
0.9560895930308471,-0.6436892695735591
0.9877247496063059,-0.4959049803742367
1.0134847943188638,-0.6688363776369013
1.0299758239120125,-0.7252170680431885
1.0354049531122766,-0.6367675806347343
1.0296828573613266,-0.7638153519359931
1.0141392311663848,-0.7225195924251593
0.9911562533379376,-0.7164055074274659
0.9639331147978486,-0.7531383058451515
0.9363767293511182,-0.6702160066745066
0.9129064072885494,-0.7394196573695092
0.8978977156181931,-0.664625985391975
0.8946469899287899,-0.77973027628424
0.9040857146622607,-0.7549184506939756
0.9238493421189662,-0.7138377866922927
0.9484152569271771,-0.7275241682274864
0.9706449762577356,-0.6070815964479603
0.9843132694883112,-0.5136747382925242
0.9865426185569369,-0.6286947832597443
0.9789709659942265,-0.5945887598166718
0.9670921989359788,-0.6408824429213513
0.958121814480015,-0.65652235600746
0.9583310011721397,-0.5941622673349856
0.9708161386171845,-0.6252750167687268
0.9943803917515199,-0.686767836294741
1.0238411825861757,-0.6345996036592325
1.0516187575922122,-0.6794193292321877
1.0699542276726481,-0.7868721329093286
1.0728533246712986,-0.7153867873259543
1.057088191972843,-0.5520295482615959
1.022188040075078,-0.5810296497506386
0.969925469124417,-0.6745420723337459
0.9039725455967696,-0.8758167334533578
0.8300239404812996,-0.676787263706808
0.7560446578870632,-0.7588817506480713
0.6919206072047109,-0.652268570272598
0.6479877314574988,-0.7958918725491929
0.6325638001477754,-0.6062969012922166
0.6492939448273308,-0.692042815912538
0.6954234715434541,-0.5738873338062016
0.7618317635185438,-0.706586555768259
0.8349633104622759,-0.6524616552239725
0.900077919682129,-0.5936544092095457
0.9448388410950891,-0.7206020915025887
0.9622433277157165,-0.722487321459287
0.9521666381931361,-0.8544061585016602
0.9211780181062383,-0.5998922297824408
0.8806918676324426,-0.7286259482689083
0.8439186728249974,-0.6073331993412471
0.822447846202553,-0.7518966542895552
0.8234758666893174,-0.7947535639836205
0.8484846389285132,-0.6933758441800605
0.8935805869827539,-0.7501636047922198
0.9510576699260823,-0.6288833426121979
1.0114425302617882,-0.6231592760123268
1.065400066538594,-0.7349023533701191
1.1051869032766204,-0.6365832991637322
1.1255929895129924,-0.7021571203639358
1.1244314128299253,-0.7436005282204942
1.1026480131896406,-0.6398030361136118
1.0640707600292556,-0.6927520809664957
1.0147642310276888,-0.6767140026023672
0.96195962745945,-0.8177521990351281
0.9126334328549083,-0.714503582443439
0.871998768600938,-0.849743696442789
0.8423694738056384,-0.6949108318612583
0.8228988996992288,-0.7089427430093154
0.8104351422409273,-0.6513454062597936
0.8012076158171584,-0.6612282608076917
0.7925728813165189,-0.6710991671197618
0.7839768034625872,-0.7876777650708338
0.7767353345800633,-0.8540563756266953
0.7729186925558239,-0.7045801826423943
0.7741152553773871,-0.7271365306595273
0.7808639415555565,-0.6851585130233453
0.7930644692576614,-0.6353039073112215
0.8109695752266671,-0.7569722565585733
0.8358949354053675,-0.8241289185804976
0.8699376522096007,-0.6564625070538449
0.9147012476151168,-0.6070692081922955
0.9697406916243334,-0.7650143452459301
1.0316526436372413,-0.6883071567922722
1.0944005168312865,-0.5845045596409779
1.1508881546552625,-0.796663977449745
1.1952629796585776,-0.7453239257359261
1.2250967887797821,-0.8554378513688834
1.242580441322528,-0.8247324839616498
1.254213256966605,-0.6306249317350937
1.2690318101801368,-0.7652901965402616
1.2959624058534787,-0.7598673884248383
1.3411841835725458,-0.7807521541540612
1.4063564340014036,-0.7282993889292299
1.488230261460069,-0.7456024994189588
1.5796777109453113,-0.7426290109142382
1.6717025712440035,-0.7845745296384906
1.7556758610992678,-0.6476153379951798
1.8249914700513958,-0.6450197439927576
1.875654654986374,-0.8290289764007256
1.9058739739224246,-0.7567983689258803
1.9151855731968817,-0.6066940022114556
1.9037281679322091,-0.6037068913275787
1.8720203133255153,-0.8455366551848721
1.821192236170703,-0.7847624224529084
1.7533379810497762,-0.7348709315487529
1.6716270755254166,-0.630911726974185
1.5800481523792134,-0.8097147690492185
1.4829726242088423,-0.7666461010779854
1.3848575039141962,-0.6472029712661574
1.2902312173592996,-0.7520773034680681
1.2037759771514915,-0.7419500166298751
1.1301275819638452,-0.7827360102406821
1.0731523926023543,-0.8439609033349126
1.0348561566567367,-0.6646505391100411
1.0144291170413744,-0.8476705682705945
1.0079748159732778,-0.6770090557230941
1.0091967233736074,-0.7857973590856886
1.0109226786916643,-0.6865293800787297
1.0070316543293347,-0.7501991620511756
0.9941824930173264,-0.7111653443795781
0.9727336186354576,-0.7181252695976681
0.9464336825025585,-0.8202012398400207
0.9208847916898795,-0.8724293034664716
0.9012972903181208,-0.7741035773277399
0.8903986973122964,-0.8148759256755217
0.8873248739875845,-0.7740969637929261
0.8879208030185831,-0.8586016489159146
0.8863131556614375,-0.7248762630694026
0.8771316395267044,-0.7567008336480898
0.8575308998646023,-0.8146774002254921
0.8282808316546382,-0.6692132015420666
0.7935743506412902,-0.83439993292609
0.759632229266796,-0.8556788795517153
0.732532772796705,-0.6953134104757263
0.7160103834853409,-0.7637496765218241
0.7101980093388522,-0.7333875257760415
0.7120995289301956,-0.8455766841130493
0.7177768468746994,-0.6299756289912246
0.7252603605191041,-0.7490250882899337
0.7367805587029614,-0.7715079424250052
0.7593115958324048,-0.7607179061553171
0.8031969911909744,-0.8337229085893353
0.8792714096778942,-0.7419048354134374
0.9952001845827045,-0.80516927138643
1.1518393217254639,-0.8278768851053114
1.3404684418955517,-0.9170128600120383
1.541831146477909,-0.7366783067796325
1.7278948185175853,-0.7986358492978616
1.8668171786546175,-0.7524656398122834
1.93046824787587,-0.7827055482216502
1.9022219186656428,-0.8542997807336117
1.781846752768121,-0.8914139742139945
1.5854618841616581,-0.894532948771982
1.3410793353552195,-0.6481240022970859
1.0820913668373533,-0.8467920981535118
0.8410447836729994,-0.7067726788174437
0.6449355135331621,-0.7037139319645543
0.5122157450196391,-0.7321262124890008
0.4512195496616178,-0.9887714615505754
0.45979731407775304,-0.9723818503519083
0.5263326677798797,-0.8125831983260808
0.6324099106923396,-0.7824181869619976
0.7568048085855882,-0.8483861214651468
0.879638235175595,-0.8307989294150412
0.9853674706724973,-0.8777489572155628
1.064010438254334,-0.8177111496329159
1.1109146995310262,-0.8592295598359224
1.1258106949166555,-0.7057216962976514
1.1117649238545426,-0.8144810920300317
1.0742931866226078,-0.9040524865372068
1.0205864688174955,-0.7532558609152641
0.9586718129742384,-0.7952924751554304
0.8964126683540695,-0.6416584906189703
0.8404860255491926,-0.9028445635584667
0.7956637982679251,-0.8067132508308292
0.7646518436952229,-0.6667706479705624
0.748406646588251,-0.6981302690252195
0.7465677751877501,-0.8307065964527925
0.7577056821143573,-0.6947592653150356
0.7794026297521561,-0.7942278497090989
0.8083987189847964,-0.818165247703098
0.8409543990956825,-0.814070154019185
0.8733713617153682,-0.8885044520383506
0.9025084352367905,-0.8835599973690956
0.9261426058801572,-0.7178696075106762
0.943064715045183,-0.7601162405164238
0.9528726651354252,-0.8743270713789516
0.9555717741087174,-0.7799997305244539
0.9512300388893695,-0.819359862278331
0.9399387667801481,-0.786048951436215
0.922179930396597,-0.9256534771345055
0.8994802626990984,-0.8016963259697787
0.8750339340736535,-0.7970569479689712
0.8538805679449951,-0.7633469851813083
0.8422932340090089,-0.8228647341265158
0.8463146439749705,-0.9651653755074531
0.8698452854363667,-0.8030207495263454
0.9130845400259939,-0.8522521275612109
0.9721260981803521,-0.8158306128525576
1.0400344232544636,-0.718561942038258
1.1090344175295161,-0.8970425778814252
1.1729187894842386,-1.0273795489673034
1.2286964503573727,-0.912967711877785
1.2768756129289498,-0.859552879904625
1.3203661795641009,-0.9237374663750263
1.3625512382834852,-0.8053469554463712
1.4054359581860485,-0.8439904638952914
1.4487398405368546,-0.7343178397571725
1.4902720558634237,-0.8701256696759313
1.5272033132899838,-0.9289800747866687
1.5574474982642168,-0.9288094724729267
1.5805380015587707,-0.8531926270586957
1.5978262877731046,-0.764590073148025
1.6120881761515615,-0.8692870939808552
1.626645305382997,-0.8004308102716141
1.644196594415836,-0.7923563153004799
1.6657954933597612,-0.7794192959706675
1.690497095967702,-0.7861977872506039
1.7159009155697404,-0.788515501226042
1.7393210097455163,-0.8260387119084098
1.7590060415448816,-0.644550379479005
1.774880979544796,-0.8899803987127621
1.788562744920161,-0.9242352780319315
1.8026986365714366,-0.8941638549322979
1.819906810885706,-0.9001795222528182
1.8417696483485786,-0.7967794414606904
1.8683558472311237,-0.7272304514941929
1.8985022994659249,-0.7643007295116734
1.9306525402723342,-0.7692307176811345
1.9637067824682701,-0.631792844217932
1.9973292599928585,-0.7667985135509445
2.031522923073945,-0.7759150291073814
2.065818100857639,-0.7826025060365153
2.0987419935709113,-0.8195702001358536
2.1280710897831794,-0.9089542687211355
2.151844799189738,-0.7134413493448123
2.169606596690074,-0.7923769583547243
2.1831511146376994,-0.6628455382028143
2.1962965661898988,-0.7212250543754881
2.213702294043811,-0.7535851225869469
2.2391838256371166,-0.6771475710174638
2.27416189862155,-0.7430253490495752
2.3168548248389627,-0.5996601370147274
2.362613231252584,-0.6170045460743362
2.405372198050161,-0.6100984861123656
2.4396718606951358,-0.5654933263273754
2.462369102367613,-0.6285379681580415
2.473292334019255,-0.5446389498903349
2.474670912303629,-0.5567880321876956
2.4698325575571345,2.280012536572738
2.461923595324186,2.3908516636110155
2.4531434330809123,2.5210978959886194
2.444542669471466,2.3257702503297057
2.436197725757258,2.3423281454990668
2.427580535405781,2.377519224479517
2.417989709267605,2.4079727937125806
2.4068942143092737,2.327778797972678
2.3940479222528133,2.442540221087642
2.379360832407945,2.5410299553501283
2.3626836718758315,2.3696203454732614
2.3436892931301907,2.4528072123028806
2.321887304186858,2.547225996613712
2.296686560183508,2.635375875319331
2.267457254929143,2.6846128139678624
2.23362767350396,2.736945159956241
2.194853671262548,2.8034572040083923
2.151267787375839,2.877328146108946
2.1037856759114737,3.018254394005636
2.0543495681796733,2.944334344766033
2.0058723209118354,3.225241223638295
1.9617017067510494,3.391651890708939
1.9246747186515276,3.5055078116742444
1.8960873950922368,3.679803576126479
1.8750183252320227,3.7585695395700403
1.8583709548533038,1.0907746507318623
1.84174759732032,1.1517391765407947
1.820927571159134,1.0727277258524164
1.793449665025347,1.1449696942064338
1.759709215811109,1.0692778530011677
1.7230981324777497,1.0535080819858513
1.689004957479769,0.7983615137528927
1.66288643855124,0.952786118292132
1.6480351564258435,0.9178177979756794
1.6439483077393753,0.9140188904850848
1.6461283962560058,0.9444577557991546
1.6475799461353722,0.8999591586544763
1.6414010602190157,0.8999066208454457
1.623232291121968,0.8568341804371763
1.592380925424754,0.8494675322181554
1.5511774233801714,0.7570631501364151
1.5030841387804459,0.7514597763113787
1.4506933231996721,0.7856711606966066
1.3946757788538275,0.9508290640052778
1.3340744947407472,0.8633694745239044
1.2675686781725366,0.9926771491643841
1.1949341382324357,1.0262636986361349
1.1179920522901903,1.1320235896203097
1.0406627199715341,1.2558588165817188
0.9681115404975792,1.3346608304612448
0.9053086946181428,1.4153200455539876
0.8555846276306438,1.445869418872328
0.8198276128912799,1.2933369189215063
0.7966814896938275,1.0100505744786257
0.7835454126763275,0.9509596783788025
0.7777591596686707,0.6100155429168904
0.7773996531514387,0.534617754647914
0.7814821009731545,0.538665573249625
0.7896937415767563,0.3899358168494316
0.8019331842661774,0.4971106621314845
0.8179179330782896,0.3057483046984301
0.8369924570452125,0.34245508919918766
0.8581001180904754,0.3490797110834114
0.8798147066262584,0.3247821472406788
0.9003852106950425,0.1993034935416866
0.9178181493350411,0.3165417049920001
0.9300424579265442,0.39475433347221045
0.9352041054720481,0.23306442142179848
0.9321226845913279,0.23549242007509807
0.920857492586729,0.22293734908346227
0.9031730637906334,0.24936256912352697
0.8825711805059617,0.27840623247489865
0.8636278721846801,0.1294672451058534
0.8506959995293704,0.3018097851342303
0.8464386239195074,0.1678656457898274
0.8508504965142354,0.08462541274660221
0.8612475885928347,0.15187286783083734
0.8732756936116128,0.16706216840705435
0.8825616620800351,0.06629133647041476
0.8863750897028558,0.1295785258517507
0.8846390856883366,0.052061641451479755
0.8798567953412822,0.136600087456298
0.8759739758792661,0.1144844301338241
0.8766772912073929,0.021357206490737534
0.8838723127265804,0.01601057311598503
0.8969870629558102,0.045776662201643545
0.913368672422981,0.02539045100032328
0.9295205017778672,-0.013094406654053398
0.9424861718804696,0.03478164002932661
0.9506091700429403,0.0006286421160159758
0.953310569137694,0.05205463302142366
0.9502001917275857,-0.13645351887217513
0.9403045998377388,-0.011201945144881709
0.9221340404573388,-0.12083252497609298
0.8947499709097425,-0.11047828695794233
0.8592685327276093,-0.1113117793640065
0.8198068825955157,-0.11845577258459618
0.7830738534990245,-0.12735248998260146
0.756539487563426,-0.073427865746911
0.7459135400036752,-0.19571316861649124
0.753027560111866,-0.15072863450343052
0.7750128527516599,-0.18949536436399714
0.8051168139732526,-0.1438131689135043
0.8348779806356084,-0.0872810510461494
0.8568646692533193,-0.1057826288328924
0.8669523317781919,-0.16561810313994363
0.8653276034050982,-0.30669298436632
0.855981712701015,-0.20074492272592542
0.8450614467769046,-0.2901937580793003
0.8387893307097568,-0.2705858429263612
0.841678099662636,-0.3051701738968868
0.8555274076521115,-0.2892119436087614
0.8793333079876774,-0.270946572865272
0.9099092483657178,-0.35999713619873136
0.9428246298743211,-0.2493590325520938
0.9732793054519728,-0.2336881441669117
0.9967484739509817,-0.3047776680255486
1.0094964294550097,-0.1733837443909337
1.0091185083102923,-0.26161741539533684
0.9950792054380332,-0.3645150687653203
0.9690226133244544,-0.27650936424164113
0.9346526635443085,-0.32130601314708956
0.8971389762206723,-0.46310755239179746
0.8621430841446863,-0.20175975524177164
0.8346641852049346,-0.43091812506045163
0.817991540657985,-0.44887186249669436
0.8130629641843724,-0.3696353216786826
0.818423006890244,-0.5029507642594444
0.8307974047595974,-0.3368867893868127
0.8461163843010839,-0.5512150813273651
0.8606531289990846,-0.5149473932329564
0.8718593318996108,-0.5090877551592738
0.8786035753811144,-0.5173581046988279
0.8808408771332757,-0.4107339026650076
0.8790246403491869,-0.3823544200373149
0.8736079547644597,-0.5672080959184477
0.8648191100744287,-0.441215688221491
0.8527079129470181,-0.45337561853934494
0.8373355336277035,-0.37152229252825675
0.8189463306774256,-0.505746228324938
0.798026151176439,-0.5057079173668882
0.7752608557689235,-0.5569146862554091
0.7514677988265044,-0.5630118861721289
0.7275705969809487,-0.5433746170918279
0.7046652480909812,-0.5801209928280231
0.68416526812576,-0.6602810897165201
0.6678839022401961,-0.4524480165591115
0.6578108785709054,-0.629168093296575
0.6554625979041876,-0.46084132975759545
0.6610474722389424,-0.4539011991792634
0.672988169305051,-0.884025834845512
0.6882351852441742,-0.9232950336946071
0.7033124683255259,-0.9497079083819585
0.715542366265395,-0.9490160318426144
0.723777726316688,-0.9382417552069308
0.7282779543950743,-0.971443293838988
0.7298659414229012,-0.9531363299372139
0.7288951731641337,-1.0202037932085073
0.7246576611677412,-0.9382924120937701
0.7156511324553075,-0.9463540443580386
0.7007018533285869,-0.9349299879743093
0.6804690841325598,-0.8426917936591792
0.6585293099238526,-0.9222963068000957
0.6412677154912079,-1.0269910314575452
0.6362910359585352,-0.7755382747338863
0.6498202251596272,-0.9050941689015398
0.6841127159268564,-0.9672614742917068
0.7360798769297998,-0.9877394488665295
0.7978224449255114,-0.9626487210820794
0.8589657146930926,-0.9638929189296879
0.9098342758837257,-0.8949076052641747
0.9441202966826125,-0.8547206450525973
0.959970331696246,-0.9157514633465929
0.9592025003719795,-0.9866412838420907
0.9453187000040223,-0.8606668032875161
0.9215976413470187,-0.8879970688124826
0.8903793244904159,-0.8385626362555431
0.8537148352700026,-0.8944943760004507
0.814558111856372,-0.9237208331575184
0.7773874602769852,-0.8937382472129204
0.7476672625367151,-0.8893821981508655
0.7303606405206464,-0.960674789659659
0.7282306913409962,-0.8610740452846477
0.7407288619220823,-0.9299566065921349
0.7639572448721444,-1.0159800801843455
0.7917218937541403,-0.8655811496406667
0.8172804578232727,-0.9411751121648638
0.8351545802956102,-0.9159334637308328
0.842381747337142,-1.0045094148623919
0.8388367089791416,-0.8924953246151341
0.82666078113075,-0.8941831912436911
0.8091894371450791,-0.8452217606975858
0.789886252687529,-0.8609262579453703
0.7716393643475464,-0.8846752853282208
0.7564915172858497,-1.0030425402711602
0.7456709630326253,-0.8978091196520631
0.7397502176913121,-0.8260904405700157
0.7387939701686067,-0.925016371482376
0.7424024031867025,-0.8050704203669536
0.7496456469495685,-0.8494582714810509
0.7590229190882881,-0.9151215102424681
0.7686644155126607,-0.8958429400323505
0.7768879094966994,-0.8887487696375505
0.7829199531821198,-0.8943828958470288
0.787326453267122,-0.8888346138394247
0.7917611064559363,-0.858697967943269
0.7980453691993895,-0.9923812793335013
0.8070288330263904,-0.8758040278393816
0.8178327469738063,-0.9337145644953543
0.8278956489987384,-0.9642215442531193
0.8338574560147498,-0.7662403865460556
0.8329151499177372,-1.0028978150013443
0.8240290149536944,-0.8893918349755914
0.808382501034539,-0.9912161394529316
0.7888054973581402,-0.8496864979760311
0.7683509152425146,-0.8599542067089393
0.7487102206326122,-0.9455816748253285
0.7293901465299312,-0.808561240406843
0.7082392148170951,-0.8157214979285533
0.683091056662134,-0.8689129248980991
0.6535740075687001,-0.7898933632537916
0.6220441326019457,-1.0128210531388195
0.5931045728397644,-0.7743895553562057
0.5719076179420599,-0.9077045852443889
0.5620389391900701,-0.8236152246075751
0.5639916172051913,-0.9365696192042672
0.5749332215806502,-0.7369151735122331
0.5898082927998808,-0.8917609443648419
0.6031935546009086,-0.9405992182525145
0.6110747471526136,-0.9277000162349369
0.6118781903217865,-0.866650070386451
0.6064768441615098,-0.8539401531496643
0.5973140327740339,-0.9261197202557107
0.5871203137770804,-0.8525519935096292
0.5778265687142947,-0.8160580022048878
0.5701369336278674,-0.9905653379403063
0.5638630155066517,-0.8676034150319244
0.5587037233848575,-0.7683722954280611
0.5549250548791732,-0.9525702814176279
0.5534970606859392,-0.9213139724887989
0.5555962241089629,-0.9638758409537005
0.5617662716372557,-0.8802431875156007
0.5712744753704271,-0.9237462993260724
0.5821848567036338,-1.0311571603752108
0.592322671448815,-0.9098618782830653
0.6007273355613185,-0.9009440155967278
0.6087426301891095,-0.81322290967643
0.6199677378802902,-0.9411193707176395
0.6389211264776462,-0.9256291411988573
0.6690406942698417,-0.9588869120211876
0.7110659776125483,-0.9371583111163687
0.7626875242021538,-0.83263532025078
0.8196862320838576,-0.9364547163414187
0.8779676669921574,-0.86151149738782
0.9354001929291883,-0.9480867175085143
0.992497207047304,-0.8247715590924842
1.0516471365451123,-0.9487772076447345
1.115377177353358,-0.9042177783163557
1.184583366099899,-0.8059101371334597
1.2575501090763443,-0.8757592511342073
1.330069363807612,-0.8763607126985566
1.3964324388736806,-1.0531848450349917
1.4507961604198703,-0.8112460557526087
1.4884530946174017,-0.9330677095228243
1.506712524089255,-0.9474615284636515
1.5052631036007726,-0.7608389470279281
1.4859838227964173,-1.0001154567259933
1.45225414455905,-0.8903554842012739
1.4079530750601286,-0.9977065703523561
1.3564753769694182,-0.9981614969769838
1.3000882266163645,-0.8369567721617881
1.2397682343127234,-0.9107170961825837
1.1754394391709915,-0.9764527097023468
1.1064438469820197,-0.8121387838027637
1.0321471919727647,-0.8430314131203462
0.9526768897403955,-0.924635293925479
0.8697172873644731,-0.9230731670256953
0.7870464257772358,-0.7839561907115036
0.7103611707618815,-0.8592502282793505
0.6461586583830627,-0.9364076814885053
0.5999310749147645,-0.9032556277692533
0.5743343188581481,-0.8512822927909541
0.5680428393890236,-0.932145302605279
0.5757323371242231,-0.9921090759199144
0.5892575491005182,-0.937721244066989
0.5997537292452035,-0.7424982422911564
0.6000789344363171,-0.8807442504220575
0.5867823712769991,-0.9008103299217236
0.5608295201233424,-0.9662154684211456
0.5267509526403531,-0.7591692503083707
0.49055456715756696,-0.9472060706449803
0.45731597551772796,-0.8856616175253277
0.4295207015259406,-0.9700339239312401
0.4068529679786761,-0.9347593464483382
0.3873911264065788,-0.7821608157374985
0.3694790860975147,-0.9773551885749336
0.353262888394709,-0.8858720952921064
0.3411199729060438,-0.8738880186861518
0.33676132627158684,-1.085182243576907
0.34334083252124836,-0.8159557891846075
0.3613368024055429,-0.9341271950565472
0.38725983344153114,-0.9137229779997869
0.4141420319492537,-0.9353186314492868
0.43401310606627663,-0.908557224483884
0.44149103522886723,-0.7653388328724873
0.4369638162519144,-0.8775222514242237
0.427993072965171,-0.9294548166088662
0.4282803890114647,-0.9626973781576519
0.4543673130044138,-0.8692875471418647
0.5209044832227723,-0.8658704704089202
0.6356994443013677,-0.9356593171760476
0.7958334327006261,-0.8219409538620766
0.9860121843140095,-0.8853576246021367
1.180033263333831,-0.8378038137090122
1.3456632901457928,-1.050758586108102
1.4520812062760637,-0.8515970949508216
1.4775985171376425,-0.9396123402230304
1.4147514227790285,-0.8753559232426129
1.271095823303316,-0.8615943067990723
1.0663571827841438,-0.9629860758428949
0.8279661763824636,-0.8348048276246256
0.5865932925999571,-0.8236593701682
0.37208905061776354,-0.7716151546982973
0.20954389618187796,-0.7586723701149005
0.11541774603179378,-0.8902074787574621
0.09445914517155762,-0.9026107424784282
0.13870008825158275,-0.8890259821619054
0.22952448995954733,-0.9624356117930248
0.3425859107694288,-0.8394742422207914
0.4539509076702952,-0.7449078979837608
0.5453034770270915,-0.9352803964248593
0.6066870987651389,-0.7389017102571915
0.6365124838128788,-0.7989518339778375
0.639607552857381,-0.966552757283862
0.6244588129822887,-0.8755475466471622
0.6005557488447265,-0.8486020704628502
0.5763197770282287,-0.9436000976828396
0.5577886230693948,-0.9842119731274274
0.548030801951237,-0.9003809118123736
0.5471129644332196,-0.8097962592931119
0.5524158127326728,-0.7667076375769626
0.5592537801035643,-0.7487894911334233
0.5619275127442002,-0.9161879636774334
0.5552675471472962,-0.9004172506948742
0.5363916129718043,-0.8891232791392123
0.5060630011601308,-0.9083059700070967
0.46899872010573784,-0.974839394076773
0.43282155975948144,-0.8498173062067695
0.40591463030093167,-0.8487694326334659
0.3949132080136736,-0.7995821575879724
0.4027095814735182,-0.8490650656750601
0.4276175240281447,-0.8099339465105979
0.46390172446621936,-0.8567436672806306
0.5034330703311205,-0.7944212018313684
0.5379230530736455,-0.8017441355965215
0.5610741559924107,-0.8581811193667791
0.570062106493753,-0.8903364448348696
0.5659977771837771,-0.8863046906909886
0.5533327899418347,-0.8850961448414931
0.5385116892475608,-0.9300043474565276
0.5284159138058862,-0.7943100886520553
0.5291022901068063,-0.9418434794155521
0.5449894508550599,-0.8830627366237036
0.5783023673608577,-0.8808536963605635
0.6285968959902327,-0.8363685070836108
0.6925027680991218,-0.8482190728057407
0.76404820970375,-0.916835629431222
0.8357772147895621,-0.9120660779751852
0.9004474799896902,-0.7619417598030084
0.9527452298240736,-0.8679683105328153
0.9904032942577626,-0.9222070065594714
1.014346607445097,-0.95154922961579
1.0278900241851638,-0.873502544931521
1.0354041043384457,-0.876194679461163
1.0410167600913107,-0.8157698897391197
1.0477582718262648,-0.9111577924875116
1.0572954658060532,-0.7469345906878359
1.0702341763714458,-0.8714505700450742
1.0868416720965377,-0.9221214100004044
1.1078563309308602,-0.8846567551735441
1.134899559985027,-0.7270502167704953
1.1700883514367935,-0.9418423035919553
1.2148635761675703,-0.8526100318384778
1.2686057354657707,-0.9977772781552005
1.3278997028965311,-0.8774329539388441
1.3870609910918867,-0.6650611832383702
1.4398531849400733,-0.8537079449182761
1.4816234370444141,-0.8726759840352367
1.5108212030564543,-0.8204007015655259
1.5292242055382617,-0.9289744454570525
1.540912121276896,-0.7255942279403482
1.550622664694338,-0.8137155788313013
1.56228096869725,-0.8363777332503561
1.5782240324206884,-0.7472615656776005
1.5992025337364066,-0.7353978836564176
1.6249022638140702,-0.7610371820390323
1.654577194540166,-0.5984351520810298
1.687409160996476,-0.7820905865875117
1.722422544601637,-0.8411047589900656
1.758115004993547,-0.8448738242620626
1.7921842607881104,-0.8283194667348671
1.8216854981400026,-0.8819661227445336
1.8437095030360822,-0.7019819271485181
1.8563679581145913,-0.5821110878442296
1.8596492811206455,-0.6769934215640828
1.8556966791631413,-0.7545420303685547
1.8482905853939409,-0.6214923901932481
1.8416846509807208,-0.6465360742496781
1.8392648202702568,-0.6258830554581998
1.8425905336962192,-0.6749480945315726
1.8511745643270028,-0.48780951755775587
1.862997635502977,-0.571343848496302
1.8754382556481903,-0.33050942874431954
1.8861552136423145,-0.4037122522757563
1.8935578114029437,-0.47307369042404934
1.8968177974415514,2.4582436325650248
1.895704157045253,2.3584761529051472
1.8905657821447532,2.3705696340886893
1.8824954197927002,2.409420404761851
1.87337375808108,2.2788116858963585
1.8654690443985948,2.3647475735389625
1.8606007298322145,2.236842957417745
1.8592552814222523,2.5081127820862106
1.860131838157617,2.4236540424684776
1.860358731350122,2.4424515678276864
1.856299280183015,2.431305222210414
1.8446841665969091,2.5467046305960825
1.8237706541337133,2.606734240740239
1.7941919509150466,2.6057078475387376
1.7591039082273556,2.676021909155092
1.7233500368255137,2.603886169837954
1.6917664933300411,2.866709201643442
1.66724675093351,2.940531778425742
1.6494436754657626,3.1733336877411067
1.6347975205532688,3.071382114122979
1.6179741753501997,3.304548484852408
1.5940685150001177,3.388303517979643
1.560520627064986,3.4457271821775795
1.5178874008879626,3.7461366720245617
1.4692558909833242,4.026086661362532
1.4187442430959385,1.2805002971896844
1.3698631646237573,1.1794665067082537
1.324435587982377,1.0999746840070495
1.2824490393699604,1.2602484956680937
1.2428173384159558,0.9867336428518587
1.2046055970313687,1.1169673032270042
1.1679403281272585,1.2402851633980168
1.1339229347800432,0.997727542259963
1.103539682280108,0.941208582026324
1.0763559243382863,1.0158590556480258
1.0500275396946526,0.9686970793757397
1.0211775300464272,1.0389848895061
0.9873415040724948,1.0646788065596895
0.9489862140763311,0.8667171842093242
0.9104110037535299,0.8755026422388692
0.8787901696565751,0.8572946570781337
0.8615256705674904,0.8799635668010902
0.8629653540896571,0.866458729621247
0.88190114924901,0.9007287659463226
0.9109446942534363,0.9180768632792708
0.9381136335663981,0.9933639318287388
0.9501084885498742,1.2634219718814597
0.9361386012893125,1.2551113929308364
0.8909983658817187,1.4454167297602074
0.8164387515540515,1.4262382058511596
0.7205283618326883,1.5924602042858838
0.6153851007369862,1.4488753729529353
0.5141635957857278,1.3846742430716323
0.42830943803556787,1.149125694027165
0.365771098511963,1.0705164874769235
0.3303189159512355,0.8480379489105143
0.3217156975249579,0.6487065173553626
0.3363733130873263,0.7529565281612626
0.368232585536578,0.5711216309569788
0.40977423133743096,0.5608373094739836
0.4531738102605659,0.49252342837347785
0.49156512346224823,0.48759238642384356
0.5202150895761537,0.5052229172798601
0.5372909811899174,0.5033415724052365
0.5439337697616183,0.563265120899856
0.5435450091681961,0.36335694398397395
0.5404740350758834,0.4065969042854992
0.5385335159768271,0.4091498611227669
0.5398594006754225,0.48428577316117893
0.5445154255548583,0.3461956333824207
0.5509488002109795,0.29932113426710477
0.5570522313892087,0.3640135797033029
0.5613424269303555,0.39262777210617233
0.563714183231466,0.3326838667675105
0.5653869005902149,0.24961319886669114
0.5680328377195304,0.2864787185055723
0.5725555301800568,0.2183587866711831
0.5782665037570155,0.33135851990044635
0.5830058668896088,0.21971033999556527
0.5841336565489179,0.19074551385163
0.5797346024287446,0.2151585411182971
0.5693032816854005,0.2753876446655989
0.5536489446408137,0.16944894113040732
0.5343337834103092,0.11733346753201834
0.5131553271764697,0.13049267537775797
0.49193240859862863,0.21935202162150624
0.4724846297836962,0.19652483769792395
0.45655359034452825,0.03708689651329241
0.44553058538469226,0.12715641758825996
0.4400325717230321,0.13000667192098017
0.43950031021373703,0.13993718473187913
0.4420879559383657,0.11206355063084548
0.4450824570411066,0.22674349296168295
0.445827680910467,0.1034688828201588
0.44278016929915576,0.07046515565572918
0.43620352910149973,-0.05090882189384265
0.4282170760092392,-0.030933648045596205
0.42222581079645993,-0.11146318631244086
0.4219139947427264,0.11201821869688208
0.429993704856213,0.05668031727058043
0.4469658680341033,-0.03844140561740599
0.4703315063832315,0.0012896992279848353
0.4947702196707513,-0.04747445980457408
0.5135413079245359,-0.08180600750149152
0.5207900604615505,-0.08721194651552124
0.513881592132641,-0.0483612792296267
0.494710607607144,-0.0685383334695951
0.46929042631842066,-0.100492981708401
0.4456533321493692,-0.09354679783768313
0.43087581650638784,-0.12535325339041958
0.4285122711149165,-0.010381773300276745
0.437588890906599,-0.0951990517842944
0.4535793870657978,-0.08323588545481171
0.4708391194194189,-0.05127277139068449
0.48530853541290764,-0.19855978819196943
0.4962003807672489,0.033364621327250536
0.5058951568366866,-0.10319123640333071
0.5181827791958128,-0.16167402882136353
0.5358319994239669,0.028875530952598972
0.5587400816301584,-0.24040178380025393
0.5835080279543017,0.010343965193765079
0.6045354511998519,-0.22640973359567257
0.6160529398095287,0.019232617383503993
0.6141716185166564,-0.1242638928490098
0.5981176642728019,-0.28840793273696735
0.5702549478516185,-0.21610204623313786
0.535066933668791,-0.14472344210157087
0.4977017134396544,-0.05376106149364425
0.46277493461466246,-0.18712663689756326
0.43385792938176126,-0.19590585819680476
0.4136297166057574,-0.12883125746250382
0.4042633823501258,-0.10083742601906384
0.4074516647931651,-0.24637224942982625
0.4237264369608381,-0.2860732032784361
0.45133816035066954,-0.1813881239181777
0.48551036441163387,-0.24200112403167395
0.5188846348913381,-0.2388790180437011
0.543363343912032,-0.06052386017298905
0.5527617744473428,-0.39533706871086693
0.5451791688248537,-0.06911524132355365
0.5240073819793677,-0.17892151127015932
0.497018725548524,-0.20814937188769778
0.47383711878445856,-0.28925142720046226
0.46286862414654506,-0.3094030861197458
0.4689650295073926,-0.27868478190218116
0.49260270311458965,-0.23924695519435044
0.5305381191193626,-0.2690440598154333
0.5772747234057736,-0.23051773836250902
0.6265568634503715,-0.23611063088127096
0.6724280209254017,-0.21144267083250756
0.7098213901441655,-0.7540039777768252
0.7348993771244914,-0.6175660281465798
0.7453656881062352,-0.7275241543389929
0.7408357021280294,-0.5964538403871003
0.7231661661384878,-0.6361867661916105
0.6964889714336482,-0.7087455893306018
0.6666592341886214,-0.73784877302962
0.640008336106919,-0.6310280462257923
0.6216707773348247,-0.7074031626532201
0.6141032400469857,-0.6672031823423518
0.6164396321366481,-0.6102114264552456
0.6249724835815118,-0.755783806782193
0.6345548195030285,-0.747057615600039
0.6403503077098212,-0.6334693853091987
0.6392650857396415,-0.6697236433400462
0.6305872935044642,-0.7116039146615738
0.6157446375487403,-0.7229910557895015
0.597486688101537,-0.644807409275734
0.5790000191694553,-0.6163729950543743
0.5633426809191137,-0.7264090679693173
0.5532379979418192,-0.7300564345722916
0.550978937164535,-0.720442701861476
0.5581545914521724,-0.7083662285054202
0.5750884354872102,-0.761455009669009
0.6001450607738714,-0.7234491896401756
0.6292816565048744,-0.6546091572249645
0.6562618033860712,-0.5202971460415027
0.6737666848128216,-0.585437287195081
0.6753077941259247,-0.6991176466639183
0.6574669774533424,-0.6763372682323284
0.6216676471425338,-0.6778423734750003
0.5746005831937311,-0.6555403351596228
0.5267811672864213,-0.6238414045907295
0.4894736033441699,-0.7307593864674271
0.4710470344630342,-0.5277468533390682
0.4742510151897994,-0.7154098865679623
0.49558802751572373,-0.6851494739945504
0.5270047853535066,-0.6251067267300628
0.5590370328149475,-0.5800104098979774
0.5839561762203398,-0.6674552883457112
0.5976882014582872,-0.626968462551742
0.6000749039117297,-0.6869865151438823
0.5938696696496322,-0.6560381440747214
0.5832700090447507,-0.785017192781283
0.5727060086911797,-0.7166607148026144
0.56620275136401,-0.680395112359639
0.5671785129501041,-0.6296696061789115
0.578284174440328,-0.6304241821302969
0.6009643796553048,-0.5264143052347858
0.6347445901452657,-0.5904983265291138
0.6766000728627224,-0.6536061967029658
0.7209312275056252,-0.6444048025739794
0.7605101329022357,-0.5783838176648394
0.7882871218040264,-0.6580833865259639
0.7994315323673141,-0.642698958536968
0.7927930842600793,-0.615271962410537
0.7712024506946462,-0.705669862113468
0.7404821469173585,-0.5893426418775051
0.7075058900318003,-0.5739016977617899
0.6780130270616795,-0.6276741636477886
0.6550195855285397,-0.5225585396166182
0.638437058163941,-0.46923346938394966
0.6259673543725108,-0.617430197695948
0.614759307026284,-0.5972235637062111
0.6029966115032066,-0.6429645285692944
0.5906947621422336,-0.7561195748303035
0.5794432765639679,-0.4978079945465771
0.5713804402359872,-0.7149791014905666
0.568028956186345,-0.5868753556621291
0.569583169411006,-0.6232802824006637
0.5748983503194056,-0.6100745371106495
0.5820556527300487,-0.5162665090669271
0.5891888062416134,-0.5756159435140402
0.5952653839907627,-0.7028084485087782
0.6005748025626162,-0.6508871730792553
0.6067223308338783,-0.7322834092160607
0.6160521624096866,-0.5911740303622373
0.6306860432490975,-0.5293060210608127
0.6516212789684984,-0.5202595580168217
0.6783470357265711,-0.5754974707151456
0.7091702348103666,-0.6167138889656315
0.7420737419351269,-0.529174775480575
0.775653466758177,-0.715704975907343
0.8096368847089694,-0.710672430303775
0.8447525692814142,-0.5379699222288068
0.8821513205121398,-0.5377651025779338
0.92282148283149,-0.5071600958312914
0.9673063805825383,-0.5149108024006376
1.0157004041358948,-0.615662481164278
1.0676951929289962,-0.5780397282181498
1.1225213781547798,-0.5036970518673503
1.1788560273156672,-0.5771910677581369
1.2348776928879237,-0.7395904045237165
1.2885369671906306,-0.6839973517353071
1.3379261412687509,-0.5469861907136532
1.3815864515512037,-0.5753356143049487
1.418677617374482,-0.5203277194200446
1.4489773940378394,-0.4242830338533433
1.4726406378209742,-0.49348180273896675
1.4897096868833275,-0.6706812995933613
1.4996126481209133,-0.5607008012650113
1.5010528235451772,-0.42437900873769285
1.4924821534792605,-0.5301444938502985
1.4728892609155175,-0.6616348617593629
1.4423662332399951,-0.6659335732856901
1.4020918501673156,-0.49710117302502127
1.3537929597527176,-0.5525079561222881
1.299048726118308,-0.620142579536439
1.2387911487004852,-0.5676646797483935
1.1731395068134354,-0.6349232530224012
1.101529413484308,-0.5390697641262273
1.0230931781810415,-0.5420113678323769
0.9373425470592943,-0.5578312471136158
0.8451776756996059,-0.5378578949652844
0.7499610800396894,-0.47254398058276315
0.6580489165987127,-0.5476787090426963
0.5781832047974976,-0.6031286361926902
0.5196763457598572,-0.6674769162735434
0.49001303247628014,-0.5392037136748468
0.49283174555087605,-0.5643453120240135
0.5270130465319441,-0.5425710778234895
0.5870079742893243,-0.5760064554865294
0.6640046476824852,-0.5979233179050458
0.7473476274343189,-0.609215761728421
0.8257932845199695,-0.4968289932486697
0.8885154891427505,-0.476867633639371
0.9260507255298381,-0.44800236672397126
0.9314237455136642,-0.5774809013393225
0.9014904519489039,-0.6023505727088241
0.8382028849945462,-0.44618558891083643
0.7492402682150012,-0.44087734053853017
0.6474302486354775,-0.489829274317127
0.5486852818285233,-0.47043388707817474
0.46871840635663486,-0.492165875340608
0.4193541530255468,-0.5375593719149658
0.405585125064189,-0.5588824008632404
0.4244922080821235,-0.4791291478302328
0.46663699573030737,-0.4901150661908316
0.5196000597448324,-0.4814478503737282
0.5724143120167686,-0.44421957930118416
0.6192994586283629,-0.5738961558486642
0.6614682639839147,-0.6265029112093671
0.7065011474246439,-0.4300745088492662
0.7655136700530176,-0.4346030939336246
0.8489086998842705,-0.5837839929271643
0.9618518125723202,-0.5344965304080669
1.1007228990141216,-0.6440025494698305
1.2517021453814694,-0.4811585084095373
1.3923397957953112,-0.4712209687820164
1.4963197343013874,-0.5603843239976755
1.5404861274925579,-0.550225122281332
1.51180422614676,-0.4938550431562623
1.411354517954299,-0.49312116943840056
1.2537340222274165,-0.4681633031399577
1.0626751843418636,-0.4960291178679876
0.8652767969454784,-0.6418051867325696
0.6869469430783756,-0.6008462729747778
0.5478334828567911,-0.47910479251800686
0.4605177876212009,-0.5442279213606084
0.4286455914971382,-0.5724862204528951
0.4466661856130316,-0.5174626504690678
0.5012448117247701,-0.565134715945283
0.5746222668555263,-0.5549828049681583
0.6492474100334342,-0.43563447940567784
0.7121394185929828,-0.482649293233991
0.7574134393941043,-0.5230636231186453
0.786221872052645,-0.60054689236708
0.8044253889013926,-0.4214163064330828
0.8191164561790929,-0.4126120258640108
0.8354340738094324,-0.6196105109566766
0.854823688238289,-0.4345777439303933
0.8751530898204656,-0.3594048541889429
0.8922951589699628,-0.44958990148023126
0.9022856516432467,-0.3362889385268644
0.9030736101997661,-0.47779543113600126
0.89518234672975,-0.6631743507025872
0.8811809270252305,-0.5228361587227847
0.864440094941901,-0.5915381145117227
0.8478809778908833,-0.533091440555063
0.833254622004139,-0.5090786360476771
0.8211162176499404,-0.5026864676829002
0.8112999097480469,-0.44097451074483973
0.8034998258448408,-0.43202549512187555
0.7975918618014066,-0.48708870570906815
0.7935509012702833,-0.6254915520308586
0.7910933221460525,-0.4200706019533359
0.7893600685315243,-0.5257093880619493
0.7869600617794488,-0.4679115162114763
0.7824994626242155,-0.5461218148345166
0.775416792479456,-0.5051248793043065
0.7667227575759742,-0.48601174747788606
0.7592675126792026,-0.4455903151094922
0.7573793066876482,-0.5223365425750616
0.7659574773450297,-0.5194091590700384
0.789263060384809,-0.5200700790334895
0.8297363281420062,-0.5071417749337237
0.887185179088645,-0.48193758637202383
0.9586140013576051,-0.46569247767167365
1.0387830873415116,-0.44520360702592937
1.1213290690253064,-0.4212922227736263
1.2000518905988489,-0.38109658240847827
1.2699302326115116,-0.5146351187770916
1.3276104128262771,-0.4414468272898226
1.371415895933083,-0.29619848770193014
1.401153528186468,-0.564201784028726
1.4179848694923298,-0.43083976466784124
1.4243785231937238,-0.4743807857115034
1.4238902968056135,-0.39660098383323295
1.4205347327154902,-0.486297118215717
1.4178553412666683,-0.46230003466055525
1.4181694120953932,-0.4204817837543364
1.4224903121287036,-0.48520915208381465
1.4312133744111866,-0.3945882389778291
1.4450774805314044,-0.4587271732055347
1.4656602416886122,-0.43251452531527557
1.4949605536781345,-0.4120515432197926
1.5342253252778524,-0.47071519645107096
1.5826495192851433,-0.48541132927897795
1.6366934496701329,-0.3406447201044866
1.6905399513306252,-0.3597682127537977
1.7377353787863061,-0.5491323436768302
1.7734545201470198,-0.5353760311593847
1.7963934231141376,-0.56340372530831
1.8093555546480076,-0.44627282783121736
1.8182140826457722,-0.43069169325657947
1.8297555014573077,-0.4911160062971849
1.849404011044689,-0.2570045989059884
1.879717357128944,-0.2945000581857414
1.920033555334728,-0.3942636945868859
1.9671378188189963,-0.30621601575569496
2.0165262124022005,-0.4177691382858195
2.0637570685906947,-0.4631353101037038
2.1054561135999816,-0.2819887481656673
2.1397520754122628,-0.2112965014528599
2.166188349190914,-0.24393113757054763
2.185344543194998,-0.28158729312180825
2.1984132578030624,-0.3464908626935363
2.2068527363382873,-0.271912441964827
2.2121288660151386,-0.24880507057959164
2.215565118847694,-0.2460948304378093
2.2183420780611858,-0.3317909062760757
2.221605011164681,-0.18145113762613221
2.226522756336923,-0.34432012031720594
2.2341680734429885,-0.2939341812104036
2.2452597468781903,-0.2208983828478933
2.259932424936089,-0.17414159157695694
2.277656053270443,-0.0971416945647734
2.2972895280118286,-0.15724604212696675
2.3171618058265158,-0.1896070713476316
2.335084734120526,-0.08676207019249303
2.3483193691871307,2.892249449646865
2.3536967485000586,2.8028488434574435
2.3481745335537885,2.776927097552233
2.3299199276322606,2.6935164392584094
2.299591813242893,2.6968764082968306
2.261142927152952,2.8664528197954797
2.2214786764866012,2.879712488861231
2.188759426000991,2.905582157782976
2.169803730417133,2.7813094234764457
2.16758695650077,2.8133549533248208
2.179918237261372,2.9007742884874967
2.1999178744665846,2.9881796160763545
2.2181445888221027,3.2476992967076757
2.225560724589067,2.9724753803177975
2.216239962701184,3.3185191558529343
2.188858124828044,3.2068234838088814
2.146516612507444,3.21035660841146
2.09514250634707,3.332123452580708
2.0412572787870253,3.4656094913575104
1.9900765619389467,3.4752577490408623
1.944669463325445,3.636938020938882
1.9063450145858816,3.74058476495627
1.8757557884345302,3.927282051617514
1.853809216967491,4.100270076887129
1.841693127673857,4.247065410256359
1.840043592305979,1.6675259894731904
1.8479385607838934,1.5936975070575428
1.8624749402814802,1.5538707681364
1.8792035407386112,1.5789403563758144
1.8931212575954013,1.6600244211591364
1.8996790001310786,1.3526558995579276
1.895423310799369,1.4178016850904251
1.8782271298559705,1.529298730295648
1.8473232975274503,1.5066237548279864
1.8033917628776384,1.4695233677224693
1.7487707232851402,1.4111257604075453
1.6876037815865554,1.3701383621610643
1.6256021709711717,1.4190001781932515
1.569198995894938,1.3149334075253085
1.5241330655631855,1.4204298685980203
1.493786472083657,1.1875267809977061
1.4778235719350032,1.2901180993303167
1.4717529573365493,1.260664513918047
1.4678215536780757,1.311677887035845
1.457118042604782,1.4671194541392218
1.432162667237892,1.4417144030779299
1.3889913728549579,1.473690339371737
1.3279935547462134,1.6512703868399183
1.2533620693609058,1.7768101577103261
1.1715997296792227,1.9695592598521319
1.0897975608132446,1.8133172097987738
1.0142780334083212,1.9138579847219392
0.9498475476568323,1.8603914727314947
0.8995760457603836,1.672365724577556
0.8648550469564532,1.442282846848711
0.8454952847554355,1.2391016917713569
0.839779816456489,1.0436878487368542
0.8445856385292758,1.003453694337449
0.855762521929018,1.0706438593177603
0.868833530964665,0.9211313170258448
0.8798729078869189,1.0119501060184293
0.88631741291753,0.8765065232975919
0.8875225033709732,0.8797308985044825
0.8849568736179578,0.8714476605940605
0.8819409476498958,0.8010118037786392
0.8828320492940104,0.8348548239820803
0.8916735317953097,0.846979391653627
0.9106212527745704,0.9166977069461189
0.9387899535832127,0.848122367432438
0.9722029172187195,0.7179188732276575
1.0050948845324474,0.6251731696837519
1.0320913787266972,0.81012372092329
1.0502154988610304,0.7040547192124084
1.0596778020674456,0.8826304089953203
1.0630631933058285,0.6381080097900964
1.0634416986095,0.7081000473094532
1.0624992275889678,0.7960119769691145
1.0596853768949872,0.849883719709546
1.0527498727663362,0.6623887011368793
1.0393010251309136,0.6869329727428907
1.0185326972277364,0.7208412241430279
0.9921829520090449,0.5997123695408875
0.9641274934108374,0.6412820181510511
0.9387059659438872,0.6384853207665094
0.9186318904826051,0.7512287994134663
0.9036761819240767,0.5928623988136007
0.8909661369035553,0.5983491421493763
0.8768633078773521,0.5447247353420033
0.8594643102076762,0.7040714149949673
0.8403641318809549,0.478723824225239
0.8246954937221042,0.5030920493355405
0.8193590396886747,0.5372934177649039
0.8302340441645851,0.5671106340065241
0.8595846072602609,0.5173521292867084
0.9047453678324886,0.44205666509372143
0.9585975624856763,0.6410522022198768
1.0115706222539285,0.5555254548989806
1.0542822913305687,0.3328792094845429
1.0797996709112512,0.50877749872543
1.084890954094698,0.5109468831804445
1.0701947067879107,0.49203783084414465
1.0395927278393593,0.40941467557930517
0.9991579212686021,0.3781671133629863
0.9559800785203478,0.28121423322797334
0.9170458794172488,0.35308706167553033
0.88820895441035,0.3432752366768061
0.8732061798387318,0.3233371322337952
0.8727724899397177,0.4805146523066165
0.8841729113478609,0.30836069476903216
0.901624059925554,0.49907231451939427
0.9178030897927404,0.26247124364827773
0.9260507363002568,0.25832253613782163
0.9224424658777677,0.36013946321035606
0.9069408911397525,0.273026766923964
0.8832642761388722,0.1598815018977695
0.8576157963138921,0.372444309730627
0.8367666298304449,0.3597092264643864
0.8261068137781886,0.24208179001665533
0.8282480931234613,0.1971833779110084
0.8426161314096258,0.3284957098031548
0.866157265484786,0.2724037462604042
0.8948409313267621,0.38779513927694786
0.925253481240432,0.3289039113871194
0.9554970849194392,0.41220934605438647
0.9849610566598719,0.30614596641589076
1.0131882599628634,0.20193945893453552
1.0386131854651235,0.3810369325848077
1.0580159081795695,0.30874268702439117
1.067106659315436,0.22184884713066289
1.0620654561305822,0.23558310558370402
1.0414279598902125,0.16789019103569808
1.0075477401722983,0.21831175459618657
0.9669774753617064,0.09867689183948229
0.9294414509362995,0.13748598871831882
0.9055259532749913,0.23583226923447884
0.9036979194545243,0.05586069641927651
0.92761884582196,0.22518488839773065
0.9747240984914171,0.1280529400270286
1.0366035511324765,0.17575266870390818
1.1010584094832552,0.1299570689071004
1.155154354168925,0.13895351378699686
1.1883384206625776,0.11249429018016596
1.194758414965307,0.00393143766533981
1.1742549965329467,0.10058882738240145
1.1319478100213562,0.228256789437741
1.0767230022002348,0.0636120771462998
1.0191336533823996,0.13628233209533228
0.9692393067743711,0.17003533839815504
0.9347869716227362,0.0833157211818291
0.9199578101619369,0.14785193682380834
0.9247775361117838,-0.16953329568140652
0.9452687136451065,-0.1815672627145296
0.9744107709060742,-0.3290434342403412
1.0038054700836725,-0.13629661090140963
1.025663599312111,-0.2724370047791151
1.0345798668435655,-0.2573520804633863
1.0286631331332545,-0.3776636903167203
1.0098136086718454,-0.24635018053956417
0.9831553188591529,-0.4145377444800323
0.955797443180391,-0.2609603224125652
0.9351881078243593,-0.24808086728402282
0.9273807905933499,-0.3400076923693432
0.9356216736948729,-0.16536899873469182
0.9596670724174322,-0.28250688016212916
0.995979317916155,-0.3280722925189804
1.0385706774629466,-0.3109959744027906
1.080109482019759,-0.31295821238141097
1.113046771566985,-0.2324682616437851
1.130737576803107,-0.20298488138432774
1.1286005073386993,-0.2865766672950266
1.1052293002094609,-0.32654925465798207
1.0631403797303325,-0.29803575081518313
1.0087175398215371,-0.4421437138142921
0.9510774875204732,-0.18603732592513356
0.9000146663752473,-0.21804671564468725
0.8636449307850127,-0.20580552918503317
0.8465409265427792,-0.27519172447180457
0.8489219788168648,-0.223733667905475
0.8670081768369621,-0.22719384915703128
0.8942533390277829,-0.2656915571320993
0.9229876217422875,-0.33780091292402786
0.9460269069830916,-0.2566397975983245
0.9579533353904929,-0.3235003333377075
0.9559104647028098,-0.2297252246786501
0.93983668204132,-0.22856839600177142
0.9121646137503936,-0.12049303492790712
0.8771744508333157,-0.26552115882969757
0.8402590330378922,-0.2907860541382726
0.8072191696474874,-0.23324260312806566
0.7834909767965255,-0.2305079151557511
0.7731747541997118,-0.19526926551372725
0.777974153308116,-0.24013063424598122
0.7964759793474308,-0.25475997219466173
0.8242996081181353,-0.24102921671627936
0.8553301501120234,-0.21558300234423955
0.8836513674858673,-0.25937079576236755
0.9053546992020629,-0.3267343617464739
0.9194722290607615,-0.24983133241035324
0.9277552407221606,-0.22392801161759607
0.9335077677269265,-0.226333324428121
0.9399624929748673,-0.3708506706454206
0.9487924213726774,-0.1860482989041352
0.959345079661723,-0.2687093792572742
0.9689938523629438,-0.2315817330156548
0.9745504296004118,-0.14798983337256896
0.9741182963440026,-0.23321605119367358
0.9684347011965939,-0.2505897350774119
0.960921370963459,-0.25427035003376885
0.9563136426142971,-0.10650161228570942
0.9585182783355357,-0.29919957107076484
0.9687915508254383,-0.3109038651231934
0.9851517963405122,-0.34409335352542836
1.0032654325627246,-0.14285078588614084
1.0182910621654093,-0.291719139367649
1.0267473205495647,-0.26439347420094206
1.0275566921001633,-0.24124006906393242
1.0218865610504062,-0.260837390806051
1.0119881782441382,-0.24124940760711083
0.9996913640337531,-0.16417560691812888
0.9853794700085451,-0.3150737388953386
0.9680155337872421,-0.2833977425309687
0.946181420815733,-0.27563504760765123
0.9194840597615062,-0.18141518798558381
0.8894744450249055,-0.23992472180046495
0.859532752287595,-0.17061055763568223
0.8337788250208802,-0.17567768252751334
0.8155965812728274,-0.3026852889034421
0.8065354755389773,-0.3037078830179636
0.8061347189023524,-0.10379119963141481
0.812738334692534,-0.3321211096458756
0.8248275674349643,-0.30111159515436975
0.8420527425351487,-0.1929139217430417
0.8652533871788264,-0.2778240462818114
0.8953421864020908,-0.1459644784299705
0.9316783592063133,-0.21433867993667644
0.9709805168950465,-0.23440905978937354
1.007619299121713,-0.08082444334983267
1.0353799770847405,-0.2185246643081844
1.0499315627180097,-0.4237755034636119
1.0507953592578823,-0.2796075318877677
1.0418238613608817,-0.17594865037986115
1.029919021138513,-0.3179940360898427
1.0225518144794856,-0.24638893124550962
1.0252157217903604,-0.2506222228729344
1.0399683158730257,-0.2460412836445407
1.0656288130336335,-0.1777313375168121
1.0993155735327977,-0.35016169921567997
1.138341111704823,-0.07675239129230643
1.181395245875179,-0.2667762145457028
1.2284644995576541,-0.2093392555613795
1.2797571827258607,-0.20032575455161383
1.334512207063287,-0.1823501766770078
1.3905518802694785,-0.16939003401222727
1.4448586230645462,-0.3078271335727866
1.4947925193676066,-0.22097417425531798
1.5392358208482093,-0.16270684545771813
1.579018780853418,-0.17803366307535617
1.6163155368016136,-0.2611207706859805
1.6531631877781192,-0.25969598377870606
1.6897055103687308,-0.2858776193685679
1.722989204536248,-0.20180387584515022
1.746976828739606,-0.20894870073184782
1.7539280899600391,-0.19864869795469
1.7367088405773594,-0.22498114065387936
1.6912211934451298,-0.25478944589465197
1.6181423060291,-0.4185266198929156
1.5234227206736282,-0.30394765884061536
1.4173500327634034,-0.2782337397884938
1.3123429269910196,-0.06589409464250187
1.220014597185281,-0.2379740715301765
1.148376741321858,-0.36804113792761806
1.100123079006625,-0.15792935076995898
1.0725450530534255,-0.21819552167563983
1.0589493904728022,-0.2867123319807126
1.0508963229374815,-0.24485039198390565
1.040440061963562,-0.2193526883208387
1.021779492869642,-0.2177017972890648
0.9920961777133411,-0.24226051181174527
0.951656166692929,-0.18415941626966878
0.903374158099683,-0.20144757895952023
0.8520247217682537,-0.3031986720423326
0.8032471341124283,-0.222342636696498
0.7624651807809275,-0.22239902157181346
0.733807735243344,-0.3349791492693281
0.7191196431724041,-0.18353241787180952
0.7172742728668862,-0.19359569903147753
0.7241579576554462,-0.19283451943561025
0.7336545658201791,-0.20124708605421038
0.7395728629019461,-0.2475187141157596
0.7379030913569553,-0.2335260033701465
0.7284617298887591,-0.22348576853473265
0.7151493156123058,-0.22020130594694795
0.7046055305770889,-0.19780242518851673
0.7036792293523486,-0.3389576877632741
0.7165777921588499,-0.1601262015674609
0.7427361042188272,-0.18695172833433707
0.7763449610475655,-0.27498849369560746
0.8080156299831428,-0.232137485770763
0.8282076287862745,-0.18068030104573005
0.831183717590061,-0.2897940097880455
0.8179564090772135,-0.17041929235365763
0.7971200918949723,-0.2292481141197939
0.7832671453007255,-0.16776266464013334
0.7934132051778979,-0.21220362552866073
0.8422771934854008,-0.22730350164317184
0.9374235533581184,-0.3503764737116697
1.0753743591010851,-0.18527104210772932
1.2399291311684641,-0.26704819186562384
1.4038763571173785,-0.2022408368552232
1.5345976633479408,-0.26077004930139386
1.6025169983359517,-0.2512066889735461
1.5895341773571525,-0.26138172772575574
1.4939790454678497,-0.23420310072471434
1.330200213866171,-0.14209635472817458
1.12362505829823,-0.20587941414849523
0.903862275191801,-0.1477440309711268
0.6983144599826188,-0.20859231080784976
0.5276778741960895,-0.2488765543659725
0.40368231658955267,-0.31037201547039656
0.32885293929325854,-0.18885022919014344
0.2978986799192429,-0.29350149425570166
0.3003327040657603,-0.08235384981403134
0.323833310140213,-0.3707414556073805
0.3575448403532352,-0.11698297598916699
0.39430783988496254,-0.12852814629532397
0.43114113514229546,-0.10727595513803212
0.4681000157555708,-0.1760302208519249
0.5063274676181075,-0.18827594535806644
0.5462808488920394,-0.10595927009651332
0.5867976105081745,-0.059833857395794894
0.6251488675761538,-0.21362323816287074
0.6578138739996624,-0.201905211407683
0.6815613105155129,-0.20299949007826196
0.694491985643491,-0.32552300933573775
0.6967820285336519,-0.10004931693925603
0.6908914283276828,-0.16621967816818825
0.6811080258293911,-0.25989805944250854
0.6725473446426107,-0.17909311705611364
0.6699385140804324,-0.18108755035285623
0.6765107248171481,-0.20008478810145156
0.693136602715025,-0.23121563744169935
0.7178260363248078,-0.15646983441817705
0.7457640153336282,-0.2575516385654104
0.7701323680414054,-0.19768294880811327
0.7837191418180944,-0.2595100895498569
0.7809003741927458,-0.23563844654442756
0.759326261277616,-0.2621504633190889
0.7207427900340543,-0.253372036277586
0.6706979951265779,-0.15898470800669035
0.6172223249778118,-0.22739733500025017
0.5688756731860427,-0.11497580251105038
0.5327940830575683,-0.3046663052134581
0.5134097199115457,-0.21586582237786883
0.5122164190226743,-0.17068161730725476
0.5284190954400413,-0.0152395283436277
0.5599012333406654,-0.20890529818934928
0.6039517343388598,-0.2793016010360178
0.6575471848195027,-0.32192735764297553
0.7173715886361947,-0.12752623182154316
0.7798981760086701,-0.13184862932353356
0.8417244912138956,-0.281861034471476
0.9001088931926823,-0.1868633429189072
0.953486631894867,-0.1784439843454279
1.0017139834622963,-0.28001166742101447
1.0458637683909033,-0.19161140002284938
1.087548112626498,-0.20818728244198478
1.1279798870714617,-0.12576652517306172
1.1672143117534208,-0.21778273339908666
1.204024439972831,-0.15488253507877572
1.2365391389044698,-0.18373274444235813
1.2632938718943092,-0.22333970451828908
1.2840838396137189,-0.1287166826232668
1.300168001361533,-0.1564165589605806
1.3138093401602857,-0.27499385339130994
1.3275257216976408,-0.03229120143622061
1.3435161746995807,-0.27681921242082325
1.3635024689214998,-0.09103371019720406
1.388888138006155,-0.2539399747866687
1.4209274374128131,-0.24580646347166346
1.460632965295235,-0.3502619625833025
1.5083925568728263,-0.09685401636905952
1.5635250633114526,-0.14946991491370543
1.624064198001114,-0.16312576135283266
1.6869033967463807,-0.11071396110151102
1.7482523505267809,-0.12083855923219548
1.804279147319735,-0.1420087325998829
1.851803493827986,-0.00873147112110495
1.8889090612556458,-0.0013877851693056913
1.9153565848399936,-0.2124498591105343
1.932702117541019,-0.12620426690189407
1.9440470852966736,-0.16000063037631887
1.9533832404515783,-0.06711976606210214
1.9645829349761237,-0.04676396537502797
1.9802480818951096,-0.05299032674155562
2.0007990267053755,-0.1882124663626722
2.0241928778724576,-0.06801284985709319
2.046447465296578,-0.0802372662061734
2.0628462300162713,-0.05177549124580329
2.06945712136816,-0.18968672320880514
2.0644605579401176,-0.06442109931567017
2.0488048969040236,-0.001084379221942708
2.025965335214333,0.16702306653814122
2.000985451986205,-0.11552609770880366
1.9792708169402358,-0.07944463392501859
1.965589882317841,0.09472208308467717
1.9634591934512409,0.04947652587985711
1.9747686585683486,0.03403957188964938
1.9994070840210831,-0.019803086818650388
2.034888394715781,0.0598467848024636
2.0763186357268983,0.11497121290972283
2.1170899395407208,3.139110159315977
2.150334488793227,2.98818127465642
2.170696665410815,3.1424574582451283
2.1757329377193915,2.953564417662147
2.1663650559592,2.92754129808213
2.1461901828872776,3.1393207445283617
2.1199017676335417,3.0263746246099927
2.0914469259612574,3.1787931107356338
2.062698691999697,3.0240598597886743
2.0332265253817665,3.0607744454455506
2.0012372717447535,3.13339508426272
1.9651869495584056,3.185596153274162
1.9252450471440574,3.1433064574510756
1.8838725890363048,3.3212711410849627
1.8451923129098633,3.4362264815466124
1.8134192186432379,3.443372393443565
1.7911231507334517,3.361623830211906
1.7781917093370043,3.5245755849791585
1.771941691117708,3.6414450747890506
1.7681795445577828,3.6809529719371428
1.7625740781638215,3.8615052761931756
1.7516946823973232,4.04348165847559
1.7334076146671764,4.125405473939531
1.7067538616476303,4.333734664953519
1.6716722605037737,4.4694697839418644
1.6288765381580168,1.7428942260006206
1.5799685853467982,1.7760978873652928
1.527640535679203,1.7542041335581762
1.4756731036635888,1.7625125661302934
1.4284374317568223,1.6172510804413476
1.389815080175825,1.538794580180524
1.3618377347383452,1.630175021868228
1.3436940193522542,1.6160839468328914
1.3317413426647482,1.5455733316635467
1.3206991543886546,1.6394166624007618
1.305563003652898,1.484662070197496
1.2833846525238752,1.6209067249897384
1.2541430589912512,1.4359846262838032
1.2204048434910586,1.443759385972954
1.186028550616073,1.4878333852116832
1.1544949735150298,1.4068047591066444
1.1274730886744475,1.437762695043504
1.1040814823524039,1.2573789206729769
1.0810813303308795,1.3744929070821839
1.053952459800141,1.4281886490491529
1.0184894034536096,1.570000808519272
0.9723438511591433,1.7257534617636532
0.9159856240279691,1.9726114408606539
0.8528256491296609,2.082717646591496
0.788528451091679,2.0545797154900054
0.7297092490310763,2.122102404241953
0.6823214480801312,2.154335593495618
0.6501404668536019,1.9138141479448998
0.6337761776105415,1.6928488001843014
0.630549612506317,1.487595497034692
0.6353410384038157,1.4757241499084646
0.642166738630501,1.2205299055902008
0.6459271042362011,1.2261714870091953
0.6437364202754465,1.013895871266365
0.6355027773220524,1.0353156118460953
0.6237198581573024,1.086813419655802
0.6125988155566804,1.0428882746561157
0.6067491978163995,0.9096314617913688
0.6096763063162316,1.0799286617854154
0.6224249700323728,0.9958983270832187
0.642769657568196,0.8577095974302251
0.6653501726626294,1.0528398019509524
0.6829619831517888,1.063710530726721
0.6888132052216651,0.9964131042063188
0.6790856146566908,0.8798832342521601
0.6548105471753514,0.9157838809130032
0.622140758580283,0.7994142456096066
0.5906703122301747,0.7243419674752517
0.5703040531227968,0.9410992125380178
0.567851167791436,0.8653821992355707
0.5846710860382307,0.727872868644625
0.616292633959824,0.8377007289356432
0.6541360278777961,0.8791013428736508
0.6885965902595526,0.692259997427955
0.7121789883621467,0.8263419844215456
0.7214100485174063,0.7677805713294665
0.7169208500345249,0.8326105772077159
0.7019913090190264,0.7690170236010041
0.6804652196511408,0.6401875934477834
0.6550334928187995,0.7253833399781
0.6265666188911555,0.7614283219661023
0.5946323121866806,0.6765933092063794
0.558717368985691,0.7553235251699304
0.5192919323759884,0.6461992250533022
0.4780443275681955,0.6748770985272251
0.43728704708634447,0.637352003113445
0.3991195255407586,0.6287407674024353
0.36497004938077615,0.5645209808089023
0.3357400659646932,0.5242670953989299
0.31236554700298824,0.6341941390172274
0.2964239625368965,0.4792790304394698
0.29040727863258353,0.5112324742020967
0.29738578884020084,0.6451383299090945
0.32001762651479315,0.48536368076415076
0.3591696700131799,0.29058333933201513
0.4126655970915726,0.6560170841204928
0.47474049021504616,0.5567822838964905
0.5365986378015478,0.5412893276258315
0.5880680165063246,0.39311916110280454
0.619887429603969,0.4175897572127964
0.6258972333898449,0.5524111103194725
0.6044761357368098,0.440260561189914
0.5588968449773576,0.4568844354936496
0.49664416947005763,0.4901221004809182
0.42798670589651644,0.33874411122872666
0.36418005171636914,0.2736061888672527
0.3156356550700351,0.2989837066989456
0.2902909400050052,0.3769159109632503
0.2923557126519659,0.30178015196592106
0.3216041150197654,0.3718417299002436
0.37336668201361356,0.36340895053981226
0.43931293362109625,0.3271393188661559
0.5090160798468218,0.2601428091142729
0.5721341937856748,0.41537040956918025
0.6207651786666057,0.3840738059165956
0.6512415211574505,0.1928325494391421
0.664639713112076,0.189022711335564
0.6657508122725264,0.32970728836007496
0.6609360565568762,0.25970592867559744
0.6557468044353276,0.22456411843062474
0.6532058460399737,0.15166967640055667
0.6532876517473822,0.2733719124490019
0.6535974440434548,0.3372842994929723
0.6507844537377674,0.21701793709595485
0.6420403303528008,0.30922809732910944
0.6261429341914845,0.3584329702277789
0.6037547997623096,0.3864026505620369
0.5769683630362805,0.2760109503444447
0.5483974317691089,0.19787068190869278
0.5203489059188711,0.3395445478155634
0.4945511801628356,0.28338851539399845
0.4724992186935202,0.19140817321784562
0.4559860971616042,0.24607267406310365
0.4472414664601586,0.22949397682376527
0.44841453323725267,0.13707640748288208
0.4606400788617989,0.1378839106946656
0.4832113013502026,0.039835165530150714
0.5132911302033019,0.13994244694204785
0.5462812072593876,0.011602360127308335
0.5766997063552548,0.1650772512118346
0.599308408579046,0.2558830794672341
0.6102087170427046,0.1135866683867372
0.6076312550510299,0.08320198914153969
0.592203242022295,0.041231803691151
0.5666301930637904,-0.018499954657529866
0.534955149936679,-0.3023130947504956
0.5017629534172295,-0.38833025579114605
0.47169315072889095,-0.22559340541152859
0.4492988036484453,-0.42875030540834785
0.438858514631001,-0.3329827740763487
0.44367038343278553,-0.3068327988012004
0.464804919035961,-0.3645888845172905
0.4998922540481032,-0.29477599343991645
0.542739544914306,-0.21895328477693432
0.5842796290760962,-0.3210877545698182
0.6147815718886858,-0.33763315255317966
0.6266753978242104,-0.22240921482108772
0.6169593820762693,-0.27372625204766515
0.5881869939450574,-0.3406092979630587
0.5475663034381124,-0.3095005104468601
0.5045069335118275,-0.3762420047617999
0.46758323864507634,-0.40916546712445473
0.44206830982041667,-0.3593333651468591
0.4289001825063802,-0.33487181122964294
0.4252927007974858,-0.2628662875782603
0.4264883730628034,-0.13723446706361225
0.42773684360277775,-0.11703223111741752
0.4256457227352253,-0.3799246634497204
0.4185021575093708,-0.3311226317069011
0.40578742248429023,-0.33280191533273973
0.387578620280118,-0.30323366961278947
0.3644945775864812,-0.25995559603616836
0.33826455892890006,-0.33997501582016826
0.3123492898696616,-0.3957699898258443
0.2918956880690654,-0.21980207762741344
0.28276592320209815,-0.2752110646680789
0.29000375349872476,-0.28249965313566094
0.3163720400189918,-0.28921084968964994
0.3614428349333755,-0.26680725557613694
0.42145642147242934,-0.2826695224922653
0.48998057628231984,-0.24548900031268164
0.5592000669886654,-0.19399084414892442
0.6214254866955985,-0.43014175039220964
0.6703518912648058,-0.3467685160279238
0.7018281171211054,-0.3060321178538155
0.7141806113011031,-0.3645775847819286
0.7082223687256101,-0.33683439118046277
0.687011703855471,-0.3341135011105799
0.6553728768539775,-0.3245022664597919
0.619197875428228,-0.37821792187844866
0.5845764480265959,-0.1693623751500295
0.5568384999697877,-0.3021873544111907
0.539647155973106,-0.34911100018765434
0.5343085728094668,-0.4117669871479362
0.5394176766658156,-0.14266160386768215
0.5509034743844652,-0.2492466568005395
0.5625625149713616,-0.2752345919074043
0.5671849159964237,-0.33808670152606535
0.5582216140326213,-0.48302724950021386
0.5316519957677758,-0.3780588091695008
0.4874891679560174,-0.2595890650403695
0.43034622047243376,-0.48487034710114146
0.368723366769924,-0.3152396012828746
0.3131220071583841,-0.2236845340254169
0.2735482394048949,-0.3823531712953594
0.2571733393603144,-0.40639929878240305
0.266795442788354,-0.3508389792866073
0.3004331886435839,-0.4439302153434189
0.3520431829973675,-0.41924932353950994
0.413066521552489,-0.2422310507965985
0.47431017694130617,-0.3671100080449171
0.5276277131065659,-0.3906625568091613
0.5670452283648242,-0.3107481772726208
0.589294461677262,-0.19006455928965627
0.5939349230474866,-0.32762088886584734
0.5832313487119674,-0.47590863009545725
0.5617895856819906,-0.1709861682115514
0.5358331766372726,-0.4026345200285449
0.5120484119061849,-0.508829731650858
0.49614007437838614,-0.27594960079414277
0.49150556149327684,-0.33993531892387674
0.4985625122973,-0.4343329659786383
0.5151152269184778,-0.3190697475578381
0.537726076144621,-0.4046939026496829
0.5635424023860947,-0.44967954033942625
0.591710657542619,-0.30821217573416393
0.623648509466965,-0.2921321185205924
0.6620411610414888,-0.24810692581452315
0.7091482305343719,-0.2566174919328776
0.7654019287705283,-0.2714371726554837
0.8290792800817206,-0.286950992496697
0.8971404132358981,-0.33127624111438775
0.9665996752670282,-0.29763577626845095
1.0355528389346575,-0.3316605612305878
1.1033361547358256,-0.19866124634244178
1.1698829048709642,-0.3977288636898773
1.2347659975669893,-0.3859445497871637
1.2965139200726767,-0.3504231773374137
1.3525732615767723,-0.32645186725376346
1.3998792658659682,-0.23274857658689047
1.4356313602733821,-0.35090746714927534
1.457803886302833,-0.30414287487316377
1.4651868707266658,-0.38566812439301096
1.4571177958101602,-0.3135541713829249
1.4332506151542383,-0.2995996446438452
1.3936132615551073,-0.2827533398905203
1.3389434787828982,-0.2932947002463709
1.2710562386782667,-0.19813523971740682
1.1929244271119877,-0.3648111400001369
1.1082967712920753,-0.285916133115933
1.0209604520540527,-0.37554297836704786
0.933975647516928,-0.38707354471928274
0.8492046551897213,-0.32946847893939485
0.7673028217017511,-0.41505805299534587
0.6881904498333244,-0.3723743785483838
0.6118884321869043,-0.34905809794848797
0.5394245426648614,-0.2763059100114711
0.47338785887831836,-0.27116307448687543
0.4177654022391708,-0.3338641611805585
0.376955268789939,-0.35777982892591315
0.3542145312283729,-0.3466407598359544
0.35013298574802876,-0.35969252289021286
0.3618491756917305,-0.3587542078724408
0.3834739993140802,-0.30162774943897463
0.4076096200729321,-0.37894649734833663
0.4272890175657058,-0.30344691530139295
0.4374756225848918,-0.3531092315252735
0.43554639360960723,-0.3856927907971055
0.42075833477284974,-0.47842702278063814
0.3932623487537664,-0.4601918050898405
0.3534682619263261,-0.24108277998067584
0.30231383611670004,-0.3414833359619501
0.2423577835047276,-0.429270343872834
0.17895201604896427,-0.44174934488139544
0.1204592000917708,-0.34811440243794567
0.07681376961373032,-0.34031035825152145
0.056587144257204014,-0.349937262739588
0.06368709061293587,-0.3021154485990454
0.09534196643183723,-0.44593417199577007
0.14267963511083803,-0.41582901261657446
0.1940419254467025,-0.3315795684578463
0.23980888710401294,-0.4094680975038171
0.27676585466179904,-0.47682415160911673
0.31025341144483176,-0.3630272347957669
0.3531874337874057,-0.31694388478776664
0.4220729620318254,-0.412042994452434
0.5310936166839404,-0.3209652779203054
0.6860338497174117,-0.4205254026054123
0.8799682950756984,-0.4040108528039785
1.092280971099013,-0.2952092151455278
1.2918034608022477,-0.37136932530687067
1.4437659569019112,-0.27290665599573144
1.5188195745074484,-0.5195967409838675
1.5010367982757271,-0.38951886370906746
1.391711086627294,-0.4472256574072197
1.207734510767524,-0.4071104902984508
0.9761437049539797,-0.39863273297619206
0.7278117889541017,-0.3000253401070711
0.4924593894295808,-0.45726765284893484
0.2954265193152814,-0.3661746880184103
0.15550667350713498,-0.3564835483549638
0.08312143261432037,-0.4694462077972529
0.07884684248426421,-0.538468515076403
0.13305737509822002,-0.4136667674966387
0.22756722917290162,-0.37954493265304495
0.3394184540815066,-0.4914447526901494
0.4458782184763178,-0.4020364711149428
0.5290960400165265,-0.4767555784929893
0.5791170932476173,-0.3929568544365143
0.5947011922536932,-0.37927461316490074
0.5820971398045516,-0.4123201021302892
0.5523311066538014,-0.3499582551932533
0.5177860822604874,-0.44974627788868565
0.48898000118837137,-0.3457500721796538
0.472389139464905,-0.3875391920248353
0.4697756578023,-0.41534911176822886
0.478885856899837,-0.2654892667698154
0.49493883996825894,-0.386221073260206
0.512269038718804,-0.4635714803780738
0.5257383393884956,-0.5106573729905372
0.5318044834178983,-0.449549596129786
0.5292134790836873,-0.34531719960852675
0.5192173978621282,-0.4398711210558967
0.5052046096529783,-0.5278223167922064
0.49177494830302726,-0.5060049863331785
0.483493613301079,-0.445337221182519
0.48364340602329536,-0.4191626450715815
0.49324535965406624,-0.4270370856588282
0.5105694536872547,-0.4037109258786429
0.5313668538211349,-0.33619310333541275
0.5499628358205599,-0.4810844020492712
0.5610053086775416,-0.4058649672933369
0.561238180619707,-0.3904359601735771
0.5505547226365737,-0.4098444933917177
0.531943586035267,-0.48269334811614745
0.5104866824236357,-0.3962544501990887
0.49191280267462334,-0.4864968319894302
0.48123572996352215,-0.5066487975303686
0.48182387221928336,-0.4202149159390785
0.4950049925906077,-0.5585428952219035
0.5201286553434382,-0.4606615119766008
0.554955129967144,-0.4856011458290208
0.5962633866189151,-0.4316392555342435
0.6405822822586839,-0.36141727364788045
0.6849322904749056,-0.5211798707427816
0.727459842926442,-0.4732875483234378
0.7678539078398116,-0.402663846736076
0.8074304166650186,-0.46064580912596986
0.8487853082715582,-0.3998001067638089
0.8950099810116018,-0.5672201885967705
0.9486279228712166,-0.49370809469636945
1.010565815612143,-0.5299383141439991
1.0795132157501086,-0.40005596497501156
1.151909153969331,-0.4400335419459354
1.2226000475091252,-0.46018547062047876
1.286055567277553,-0.45600858508950454
1.3378953291682656,-0.4932987376156152
1.3762875388219156,-0.5426283133087211
1.402627534332774,-0.4311926221411782
1.4210603767684948,-0.4347104093848382
1.4369549295959447,-0.455362647269422
1.4550265012888857,-0.4193134892174968
1.4779787210376503,-0.6028487288647449
1.506186107262661,-0.49672373976088535
1.5383730552825736,-0.44346274297818633
1.5728155837323103,-0.360736884382928
1.608437159732102,-0.5026088361999197
1.6452801913251593,-0.3448770077600527
1.6841639949285732,-0.4339286136165709
1.725764642648719,-0.47006290725421657
1.7696563221402672,-0.4708893773274247
1.8138668918118512,-0.35988261001427824
1.8552237939095964,-0.3381588848229447
1.8903515991121704,-0.3609284324349735
1.9168347138992559,-0.3759560003149021
1.9339641341200577,-0.32449453265688877
1.9427266531776701,-0.3150372014401431
1.9451450448854746,-0.2427602808437106
1.9434382811936466,-0.2960519160836357
1.9394872401479912,-0.38777823254925464
1.9347730441361497,-0.37261087888006367
1.9305640773772046,-0.2988381963554055
1.927967740028937,-0.3847163713153947
1.9276544501340243,-0.5155484740211318
1.929434080571668,-0.26829389267822484
1.9320761296336513,-0.2619513756157297
1.9336233348121814,-0.19673356220600502
1.9321079451291783,-0.26311260963010735
1.9263418059969495,-0.26532488205819865
1.9164607544865362,-0.27768762242846
1.904086796616412,-0.1392061008229279
1.8921370146561476,-0.22132355002724113
1.8843067773224313,2.7264728589761895
1.8841700488040365,2.732429304613156
1.8939380120469593,2.767319266385512
1.913272937555461,2.782736686295957
1.9388434571592836,2.6310784324746224
1.9651276229542987,2.764234076277038
1.9863081950715666,2.6937526515778814
1.9984040641698186,2.665513252445071
2.000575251330109,2.7379807801282823
1.9950103305724545,2.9068021391621666
1.9856189397022408,2.754514755179863
1.9763108444089792,2.7615058393172154
1.9696138179931202,2.9097500529844043
1.96596799891819,2.9959903216001527
1.9636628952937945,3.0020417600278777
1.9592416072512164,3.034233734817183
1.9482030276941487,3.283296889999858
1.9258961172307274,3.2730408842629477
1.888565838848805,3.3577662712254006
1.834486965611642,3.488520411172702
1.7649853886443698,3.600748394516289
1.6850033291040245,3.5936257305744976
1.6028369490432275,3.818734830524528
1.5288261806260266,3.909248613281629
1.4731055716822818,4.189317069108666
1.4429294893572915,1.4002640514551055
1.440387547163238,1.526905555514921
1.4613615422915927,1.4878436699409248
1.4962575188683496,1.3346985222830539
1.5324371736032991,1.478597150260774
1.5576047725625655,1.312952126955355
1.5629881275233213,1.3924531087225236
1.5452314769922069,1.3620960467191672
1.5065132259037561,1.2370714428391199
1.4531770403302353,1.280287211565073
1.3936430027568683,1.2271673063605926
1.3363615070470902,1.1627528386524253
1.2882782771583257,1.1787710202041104
1.253959901804241,1.1770305332084248
1.2353054973292843,1.157883295493481
1.2316459079063806,1.1433342155005366
1.2400079041205836,1.2515301480949463
1.2554164567827617,1.0761583361000933
1.2712810074548564,1.136924939151131
1.2800358437965753,1.2291963970445579
1.2741761289701425,1.232179569575132
1.2476575381210235,1.3866179817299675
1.1973973963079065,1.4899805028751425
1.1244255302581385,1.7311046537113388
1.0341817978428127,1.7590685234574903
0.9356384107123636,1.5608606181522302
0.8393350904637351,1.7650110225386773
0.7548913796956718,1.3370259847472743
0.6888598626458076,1.2558169050480172
0.6437066330463868,1.129671225540991
0.6182174844790069,0.9861778762083031
0.608963673878826,0.7901017990352897
0.6120152389015829,0.9287065795949936
0.624106411838311,0.8604191955055959
0.6428609751556036,0.8025116683934101
0.6662174492632453,0.7364232350394176
0.6916029244878313,0.6973533550653009
0.7155111755956369,0.618096922640348
0.7338860188000637,0.6781226771583708
0.7432265794699925,0.5516619717623132
0.7418954638579859,0.5518388195100867
0.7309550956713673,0.7741917806812576
0.7140435045885429,0.5409804147956608
0.6962557920332108,0.6421073162907943
0.6825200566406648,0.5920227183475892
0.6762242805630827,0.4374134717147711
0.6786504665635443,0.5311201868223936
0.6892542669650688,0.5490110921822158
0.7063822846882197,0.4664293113035285
0.7279112954788794,0.5105040971067378
0.7515096988135319,0.4706957350835768
0.7745727553961159,0.49089536867448264
0.7941484877442758,0.388185275667459
0.8071914989840399,0.2949822139414779
0.8112312511954518,0.3864581740992821
0.805174552850236,0.48854500323916766
0.7897595610181827,0.4601668126272101
0.767329034453389,0.3477749899804721
0.7410066375531585,0.2975482233270051
0.7137393856706062,0.29027795761741615
0.6877251643572212,0.3891757643969667
0.664433029359993,0.17498979204079468
0.6450023338830153,0.29264129805256583
0.6306112349373214,0.14534830275475522
0.6225385930187812,0.13593583158073624
0.6219145871813501,0.2738361141051879
0.6293349789115067,0.3130386426679061
0.6445567293724525,0.20051693437630821
0.666447485957433,0.23229581055345466
0.6932225665494733,0.059554565970579364
0.7228135358822823,0.12109409850819602
0.7531516554763825,0.22054123269320539
0.7823139747684091,0.1412574552069109
0.8086868100497225,0.17910658581155922
0.8312747134850335,0.1654226756998031
0.8499997384406635,0.16181409330269322
0.8656052443147166,0.05610439436257615
0.8789373537016157,0.10934954883554447
0.8898937766232886,0.16334465877821952
0.8967672161339235,0.09444229617039294
0.8966273692021853,0.12237098994458544
0.8867602355178472,0.09162158193413858
0.8664603187382063,-0.023171338583376964
0.8381919434763148,-0.03987109551759548
0.8074689891972026,0.1038468918367936
0.7814366442278374,0.011400244475061341
0.7666752899532356,-0.0895400312237916
0.7670556045343733,-0.019046743263593853
0.7825359627011841,-0.05126054987616903
0.8094606161254788,-0.008988690833357288
0.8421727892078161,-0.024003722920079632
0.8750278448154178,-0.1784290990772537
0.9037482306434802,-0.008666786509799887
0.9256406908940934,-0.019682518412103365
0.939051226441551,-0.1222041097532072
0.9428999076105851,-0.058344739420565325
0.9368860998198472,-0.09652358856421703
0.9222562805419792,-0.013279868705919462
0.9024476650905827,-0.0602754941341327
0.8828498426587532,-0.10902536903656705
0.8694055574976294,-0.01412588506123791
0.8665150310608609,-0.06618316061218439
0.8752180880566506,-0.14681436411076748
0.8925437395245628,-0.08688677120555734
0.9123412511192617,-0.18706108121916976
0.9272704600311765,-0.21302750953489535
0.9312340431783237,-0.03225271920908029
0.9213905123412531,-0.06449160377558324
0.8989805443173415,-0.022745633076813
0.8686292691559585,-0.29210258822933893
0.8364754389219078,-0.08469665090904502
0.8080192618801472,-0.30836306633931243
0.7866127243089881,-0.21502051058058524
0.773080390127951,-0.11127708408335624
0.7663759676975367,-0.36801533575405304
0.7647528857265872,-0.1289420101811717
0.766808068214939,-0.28743353068405664
0.7719476303206005,-0.2622535816969175
0.7801978087225951,-0.2584846864253066
0.7916363473305592,-0.1624408753027598
0.8058582930531096,-0.1052103394450916
